#    s        x        y     Ue/Vinf    Dstar     Theta      Cf       H
   0.00000  1.00000  0.00000  0.85404  0.004530  0.002857  0.001701     1.586
   0.00408  0.99592  0.00019  0.85921  0.004391  0.002791  0.001767     1.573
   0.01077  0.98925  0.00065  0.87036  0.004109  0.002658  0.001919     1.546
   0.01818  0.98187  0.00132  0.87864  0.003917  0.002561  0.002027     1.530
   0.02634  0.97376  0.00217  0.88691  0.003737  0.002467  0.002136     1.515
   0.03516  0.96499  0.00316  0.89571  0.003556  0.002371  0.002255     1.500
   0.04451  0.95570  0.00422  0.90169  0.003437  0.002304  0.002329     1.492
   0.05416  0.94612  0.00534  0.90777  0.003321  0.002236  0.002407     1.485
   0.06396  0.93638  0.00648  0.91118  0.003254  0.002193  0.002440     1.484
   0.07383  0.92658  0.00766  0.91525  0.003177  0.002145  0.002484     1.481
   0.08374  0.91675  0.00886  0.91794  0.003125  0.002108  0.002506     1.482
   0.09366  0.90690  0.01010  0.92093  0.003069  0.002070  0.002532     1.482
   0.10360  0.89705  0.01138  0.92433  0.003007  0.002029  0.002565     1.482
   0.11355  0.88719  0.01270  0.92790  0.002943  0.001987  0.002602     1.481
   0.12352  0.87731  0.01405  0.93124  0.002884  0.001947  0.002634     1.481
   0.13349  0.86743  0.01543  0.93445  0.002827  0.001909  0.002665     1.481
   0.14349  0.85753  0.01685  0.93828  0.002762  0.001867  0.002706     1.480
   0.15351  0.84762  0.01830  0.94180  0.002703  0.001827  0.002743     1.479
   0.16353  0.83771  0.01978  0.94576  0.002639  0.001785  0.002787     1.478
   0.17357  0.82778  0.02129  0.94975  0.002575  0.001744  0.002833     1.477
   0.18362  0.81785  0.02282  0.95347  0.002516  0.001705  0.002875     1.476
   0.19369  0.80790  0.02438  0.95756  0.002453  0.001664  0.002923     1.475
   0.20377  0.79795  0.02596  0.96159  0.002392  0.001624  0.002972     1.473
   0.21385  0.78799  0.02756  0.96548  0.002334  0.001585  0.003018     1.472
   0.22396  0.77802  0.02919  0.97031  0.002265  0.001541  0.003084     1.470
   0.23407  0.76804  0.03083  0.97417  0.002209  0.001504  0.003132     1.469
   0.24420  0.75805  0.03249  0.97851  0.002148  0.001464  0.003190     1.467
   0.25434  0.74805  0.03417  0.98332  0.002083  0.001423  0.003259     1.465
   0.26449  0.73804  0.03586  0.98744  0.002027  0.001385  0.003316     1.463
   0.27465  0.72802  0.03757  0.99270  0.001960  0.001343  0.003398     1.460
   0.28483  0.71799  0.03928  0.99639  0.001909  0.001308  0.003449     1.459
   0.29502  0.70795  0.04101  1.00149  0.001846  0.001267  0.003531     1.456
   0.30521  0.69791  0.04275  1.00686  0.001781  0.001226  0.003622     1.452
   0.31542  0.68785  0.04449  1.01109  0.001727  0.001191  0.003690     1.451
   0.32564  0.67778  0.04624  1.01636  0.001666  0.001151  0.003784     1.447
   0.33587  0.66770  0.04799  1.02104  0.001610  0.001114  0.003868     1.445
   0.34609  0.65763  0.04974  1.02600  0.001553  0.001077  0.003960     1.442
   0.35632  0.64755  0.05149  1.03080  0.001498  0.001041  0.004052     1.439
   0.36654  0.63748  0.05324  1.03622  0.001439  0.001003  0.004161     1.436
   0.37675  0.62742  0.05498  1.04088  0.001387  0.000967  0.004254     1.434
   0.38695  0.61737  0.05672  1.04683  0.001327  0.000929  0.004381     1.429
   0.39714  0.60733  0.05844  1.05124  0.001278  0.000895  0.004472     1.428
   0.40730  0.59731  0.06015  1.05624  0.001227  0.000860  0.004576     1.427
   0.41745  0.58730  0.06185  1.06109  0.001178  0.000826  0.004672     1.427
   0.42760  0.57730  0.06354  1.06682  0.001127  0.000790  0.004783     1.427
   0.43772  0.56731  0.06521  1.07168  0.001082  0.000756  0.004858     1.430
   0.44784  0.55733  0.06686  1.07618  0.001042  0.000724  0.004895     1.438
   0.45793  0.54737  0.06849  1.08084  0.001006  0.000693  0.004889     1.452
   0.46801  0.53742  0.07010  1.08557  0.000976  0.000662  0.004807     1.476
   0.47808  0.52748  0.07168  1.08867  0.000966  0.000635  0.004545     1.520
   0.48813  0.51755  0.07324  1.09241  0.000974  0.000609  0.004080     1.597
   0.49817  0.50763  0.07478  1.09721  0.001016  0.000584  0.003302     1.738
   0.50818  0.49773  0.07628  1.10383  0.001132  0.000560  0.002111     2.022
   0.51818  0.48784  0.07775  1.12116  0.001343  0.000518  0.000846     2.592
   0.52815  0.47797  0.07919  1.15181  0.001596  0.000450  0.000117     3.543
   0.53811  0.46811  0.08059  1.15957  0.001716  0.000433 -0.000039     3.960
   0.54806  0.45826  0.08195  1.16306  0.001757  0.000426 -0.000083     4.127
   0.55796  0.44844  0.08327  1.16668  0.001747  0.000418 -0.000096     4.180
   0.56787  0.43862  0.08455  1.17043  0.001705  0.000410 -0.000093     4.158
   0.57773  0.42883  0.08578  1.17434  0.001650  0.000402 -0.000082     4.102
   0.58759  0.41905  0.08697  1.17847  0.001568  0.000394 -0.000051     3.981
   0.59741  0.40929  0.08810  1.18285  0.001494  0.000386 -0.000016     3.876
   0.60721  0.39955  0.08918  1.18754  0.001412  0.000377  0.000037     3.748
   0.61698  0.38983  0.09020  1.19254  0.001331  0.000368  0.000103     3.621
   0.62674  0.38012  0.09116  1.19784  0.001256  0.000358  0.000177     3.508
   0.63645  0.37045  0.09206  1.20353  0.001179  0.000348  0.000276     3.385
   0.64614  0.36080  0.09290  1.20969  0.001098  0.000338  0.000412     3.249
   0.65578  0.35119  0.09366  1.21586  0.001030  0.000328  0.000543     3.144
   0.66535  0.34164  0.09434  1.22214  0.000966  0.000317  0.000691     3.046
   0.67486  0.33215  0.09494  1.22860  0.000902  0.000306  0.000873     2.945
   0.68431  0.32272  0.09545  1.23518  0.000839  0.000296  0.001097     2.840
   0.69369  0.31335  0.09585  1.24032  0.000796  0.000286  0.001255     2.782
   0.70300  0.30404  0.09615  1.24540  0.000751  0.000277  0.001451     2.717
   0.71226  0.29478  0.09635  1.25054  0.000703  0.000267  0.001717     2.636
   0.72148  0.28556  0.09642  1.25287  0.000676  0.000259  0.001850     2.607
   0.73066  0.27638  0.09638  1.25533  0.000644  0.000251  0.002044     2.564
   0.73981  0.26723  0.09622  1.25653  0.000617  0.000244  0.002216     2.530
   0.74897  0.25808  0.09594  1.25676  0.000592  0.000237  0.002388     2.499
   0.75812  0.24894  0.09553  1.25518  0.000575  0.000231  0.002486     2.487
   0.76728  0.23979  0.09500  1.25306  0.000559  0.000226  0.002583     2.477
   0.77645  0.23065  0.09435  1.24982  0.000547  0.000221  0.002620     2.481
   0.78562  0.22151  0.09359  1.24790  0.000525  0.000214  0.002803     2.453
   0.79478  0.21239  0.09270  1.24310  0.000516  0.000209  0.002809     2.465
   0.80393  0.20330  0.09170  1.23970  0.000498  0.000203  0.002954     2.448
   0.81303  0.19426  0.09058  1.23480  0.000484  0.000198  0.003038     2.444
   0.82212  0.18526  0.08934  1.22959  0.000469  0.000192  0.003147     2.437
   0.83116  0.17632  0.08798  1.22385  0.000453  0.000187  0.003283     2.425
   0.84018  0.16743  0.08649  1.21670  0.000440  0.000181  0.003368     2.423
   0.84913  0.15862  0.08488  1.20939  0.000424  0.000176  0.003515     2.411
   0.85804  0.14988  0.08314  1.20058  0.000410  0.000170  0.003622     2.407
   0.86691  0.14121  0.08127  1.19086  0.000396  0.000165  0.003723     2.405
   0.87572  0.13263  0.07927  1.18055  0.000381  0.000159  0.003875     2.395
   0.88446  0.12416  0.07714  1.16881  0.000366  0.000153  0.004039     2.384
   0.89313  0.11579  0.07487  1.15485  0.000355  0.000148  0.004078     2.393
   0.90170  0.10756  0.07248  1.14143  0.000337  0.000142  0.004342     2.371
   0.91017  0.09948  0.06995  1.12415  0.000327  0.000137  0.004355     2.383
   0.91851  0.09157  0.06730  1.10747  0.000309  0.000131  0.004625     2.363
   0.92668  0.08388  0.06453  1.08700  0.000296  0.000125  0.004769     2.359
   0.93469  0.07641  0.06164  1.06449  0.000282  0.000120  0.004890     2.358
   0.94247  0.06922  0.05866  1.04031  0.000267  0.000114  0.005117     2.346
   0.95001  0.06234  0.05559  1.01245  0.000253  0.000108  0.005314     2.335
   0.95725  0.05581  0.05246  0.98123  0.000240  0.000103  0.005420     2.334
   0.96416  0.04967  0.04930  0.94793  0.000227  0.000098  0.005566     2.328
   0.97069  0.04395  0.04614  0.91140  0.000213  0.000092  0.005783     2.313
   0.97681  0.03869  0.04301  0.87048  0.000202  0.000088  0.005873     2.306
   0.98248  0.03391  0.03996  0.82730  0.000192  0.000083  0.005880     2.306
   0.98770  0.02960  0.03702  0.78271  0.000181  0.000079  0.005932     2.299
   0.99248  0.02574  0.03420  0.73603  0.000171  0.000074  0.005894     2.300
   0.99682  0.02232  0.03152  0.68671  0.000159  0.000070  0.006060     2.271
   1.00077  0.01930  0.02898  0.63291  0.000153  0.000067  0.005774     2.277
   1.00435  0.01663  0.02659  0.58083  0.000146  0.000064  0.005525     2.284
   1.00761  0.01427  0.02434  0.52844  0.000137  0.000060  0.005390     2.279
   1.01059  0.01219  0.02221  0.47057  0.000128  0.000057  0.005319     2.241
   1.01331  0.01036  0.02020  0.41019  0.000126  0.000055  0.004576     2.275
   1.01579  0.00875  0.01831  0.35231  0.000116  0.000052  0.004339     2.252
   1.01809  0.00732  0.01651  0.28723  0.000111  0.000050  0.003757     2.232
   1.02022  0.00606  0.01480  0.22360  0.000107  0.000047  0.002913     2.277
   1.02219  0.00495  0.01317  0.15493  0.000097  0.000044  0.002372     2.216
   1.02401  0.00398  0.01163  0.08115  0.000099  0.000044  0.001184     2.238
   1.02571  0.00314  0.01015  0.00813  0.000087  0.000039  0.000137     2.230
   1.02731  0.00241  0.00873 -0.07369  0.000087  0.000039  0.001243     2.230
   1.02880  0.00180  0.00737 -0.15698  0.000082  0.000037  0.002846     2.217
   1.03022  0.00127  0.00605 -0.24918  0.000076  0.000034  0.004839     2.215
   1.03155  0.00084  0.00479 -0.34701  0.000072  0.000033  0.007122     2.213
   1.03282  0.00050  0.00357 -0.45194  0.000068  0.000031  0.009843     2.208
   1.03402  0.00025  0.00239 -0.55460  0.000068  0.000030  0.011935     2.229
   1.03517  0.00008  0.00126 -0.68601  0.000058  0.000027  0.018433     2.149
   1.03627  0.00000  0.00016 -0.84017  0.000055  0.000025  0.023150     2.195
   1.03736  0.00005 -0.00093 -0.98831  0.000054  0.000024  0.026704     2.226
   1.03847  0.00026 -0.00202 -1.15497  0.000051  0.000023  0.033986     2.195
   1.03963  0.00070 -0.00309 -1.20691  0.000074  0.000029  0.017215     2.558
   1.04084  0.00131 -0.00414 -1.21567  0.000087  0.000035  0.015463     2.514
   1.04212  0.00206 -0.00518 -1.22205  0.000101  0.000040  0.013083     2.534
   1.04347  0.00292 -0.00621 -1.23039  0.000111  0.000044  0.012438     2.502
   1.04490  0.00391 -0.00725 -1.23048  0.000128  0.000050  0.009989     2.574
   1.04643  0.00501 -0.00831 -1.23585  0.000135  0.000054  0.010119     2.516
   1.04806  0.00623 -0.00939 -1.24334  0.000143  0.000057  0.009860     2.491
   1.04981  0.00759 -0.01050 -1.25075  0.000152  0.000061  0.009361     2.486
   1.05172  0.00911 -0.01165 -1.25833  0.000162  0.000065  0.008927     2.481
   1.05377  0.01079 -0.01283 -1.26277  0.000174  0.000070  0.008067     2.508
   1.05602  0.01267 -0.01406 -1.26874  0.000184  0.000074  0.007806     2.495
   1.05847  0.01477 -0.01533 -1.26687  0.000205  0.000079  0.006391     2.577
   1.06117  0.01711 -0.01667 -1.27103  0.000211  0.000084  0.006591     2.524
   1.06414  0.01973 -0.01807 -1.26959  0.000231  0.000090  0.005668     2.577
   1.06744  0.02267 -0.01956 -1.27328  0.000239  0.000094  0.005812     2.528
   1.07110  0.02598 -0.02114 -1.27843  0.000248  0.000099  0.005771     2.503
   1.07520  0.02972 -0.02281 -1.28128  0.000265  0.000105  0.005309     2.521
   1.07976  0.03393 -0.02457 -1.28417  0.000281  0.000111  0.005002     2.525
   1.08485  0.03867 -0.02642 -1.28551  0.000300  0.000118  0.004591     2.544
   1.09052  0.04399 -0.02837 -1.29064  0.000310  0.000124  0.004647     2.506
   1.09676  0.04990 -0.03037 -1.29102  0.000336  0.000132  0.004097     2.549
   1.10353  0.05636 -0.03241 -1.29254  0.000354  0.000139  0.003897     2.547
   1.11081  0.06334 -0.03446 -1.29602  0.000368  0.000146  0.003863     2.523
   1.11849  0.07076 -0.03647 -1.29624  0.000393  0.000154  0.003496     2.553
   1.12654  0.07856 -0.03843 -1.29864  0.000408  0.000161  0.003440     2.535
   1.13483  0.08664 -0.04030 -1.29936  0.000430  0.000169  0.003219     2.548
   1.14336  0.09498 -0.04207 -1.29860  0.000456  0.000177  0.002960     2.572
   1.15204  0.10350 -0.04374 -1.29954  0.000471  0.000184  0.002909     2.558
   1.16085  0.11218 -0.04529 -1.29842  0.000496  0.000192  0.002693     2.581
   1.16978  0.12099 -0.04672 -1.29632  0.000522  0.000200  0.002479     2.606
   1.17880  0.12991 -0.04804 -1.29397  0.000548  0.000209  0.002312     2.624
   1.18789  0.13892 -0.04925 -1.29194  0.000569  0.000216  0.002206     2.631
   1.19704  0.14801 -0.05035 -1.28912  0.000595  0.000224  0.002060     2.649
   1.20626  0.15717 -0.05134 -1.28572  0.000622  0.000233  0.001908     2.673
   1.21553  0.16640 -0.05222 -1.28144  0.000654  0.000242  0.001731     2.709
   1.22485  0.17569 -0.05300 -1.27665  0.000689  0.000251  0.001561     2.748
   1.23424  0.18505 -0.05369 -1.27190  0.000721  0.000259  0.001429     2.778
   1.24368  0.19447 -0.05429 -1.26696  0.000754  0.000268  0.001306     2.809
   1.25317  0.20395 -0.05480 -1.26127  0.000795  0.000278  0.001150     2.860
   1.26272  0.21349 -0.05523 -1.25569  0.000834  0.000287  0.001027     2.903
   1.27232  0.22308 -0.05559 -1.25026  0.000871  0.000297  0.000928     2.939
   1.28197  0.23273 -0.05588 -1.24486  0.000910  0.000306  0.000838     2.975
   1.29165  0.24241 -0.05610 -1.23944  0.000950  0.000315  0.000750     3.015
   1.30138  0.25213 -0.05625 -1.23366  0.001000  0.000325  0.000638     3.078
   1.31113  0.26188 -0.05635 -1.22844  0.001039  0.000334  0.000575     3.113
   1.32091  0.27166 -0.05639 -1.22323  0.001082  0.000343  0.000509     3.156
   1.33072  0.28147 -0.05638 -1.21816  0.001126  0.000352  0.000448     3.198
   1.34055  0.29130 -0.05632 -1.21328  0.001168  0.000361  0.000398     3.236
   1.35041  0.30116 -0.05621 -1.20849  0.001212  0.000370  0.000349     3.279
   1.36029  0.31104 -0.05605 -1.20367  0.001265  0.000379  0.000288     3.341
   1.37019  0.32094 -0.05585 -1.19919  0.001309  0.000387  0.000251     3.380
   1.38011  0.33086 -0.05561 -1.19483  0.001355  0.000396  0.000215     3.423
   1.39006  0.34080 -0.05533 -1.19061  0.001401  0.000404  0.000182     3.466
   1.40002  0.35076 -0.05502 -1.18672  0.001432  0.000412  0.000172     3.476
   1.41001  0.36074 -0.05467 -1.18287  0.001470  0.000420  0.000154     3.500
   1.42001  0.37074 -0.05429 -1.17929  0.001495  0.000428  0.000153     3.495
   1.43002  0.38074 -0.05389 -1.17615  0.001494  0.000435  0.000184     3.437
   1.44006  0.39077 -0.05345 -1.17323  0.001490  0.000441  0.000217     3.378
   1.45010  0.40080 -0.05299 -1.17135  0.001443  0.000446  0.000311     3.237
   1.46015  0.41084 -0.05250 -1.15889  0.001325  0.000472  0.000684     2.804
   1.47023  0.42090 -0.05199 -1.14256  0.001159  0.000508  0.001498     2.282
   1.48031  0.43097 -0.05146 -1.13241  0.001029  0.000535  0.002634     1.924
   1.49041  0.44105 -0.05091 -1.12769  0.000954  0.000556  0.003646     1.716
   1.50051  0.45114 -0.05034 -1.12476  0.000923  0.000577  0.004354     1.599
   1.51062  0.46123 -0.04975 -1.12235  0.000918  0.000600  0.004794     1.530
   1.52075  0.47134 -0.04914 -1.11950  0.000932  0.000625  0.005030     1.491
   1.53088  0.48145 -0.04852 -1.11701  0.000954  0.000651  0.005154     1.466
   1.54101  0.49156 -0.04789 -1.11521  0.000979  0.000676  0.005218     1.449
   1.55114  0.50167 -0.04724 -1.11272  0.001011  0.000702  0.005213     1.440
   1.56127  0.51178 -0.04657 -1.10888  0.001052  0.000732  0.005143     1.437
   1.57141  0.52190 -0.04590 -1.10812  0.001080  0.000755  0.005136     1.431
   1.58155  0.53201 -0.04520 -1.10364  0.001127  0.000787  0.005020     1.433
   1.59167  0.54211 -0.04450 -1.10206  0.001161  0.000811  0.004976     1.431
   1.60181  0.55222 -0.04378 -1.09945  0.001200  0.000839  0.004901     1.431
   1.61194  0.56233 -0.04304 -1.09583  0.001245  0.000869  0.004801     1.433
   1.62208  0.57244 -0.04229 -1.09308  0.001286  0.000897  0.004725     1.434
   1.63222  0.58255 -0.04153 -1.09025  0.001328  0.000925  0.004649     1.436
   1.64236  0.59266 -0.04076 -1.08807  0.001366  0.000951  0.004590     1.436
   1.65251  0.60278 -0.03997 -1.08505  0.001409  0.000980  0.004513     1.438
   1.66266  0.61290 -0.03916 -1.08104  0.001458  0.001012  0.004416     1.441
   1.67281  0.62302 -0.03835 -1.07861  0.001497  0.001039  0.004359     1.442
   1.68298  0.63315 -0.03753 -1.07626  0.001537  0.001066  0.004306     1.442
   1.69314  0.64328 -0.03669 -1.07285  0.001583  0.001096  0.004231     1.444
   1.70331  0.65341 -0.03584 -1.06980  0.001627  0.001126  0.004167     1.446
   1.71347  0.66354 -0.03498 -1.06676  0.001671  0.001155  0.004106     1.447
   1.72364  0.67367 -0.03411 -1.06344  0.001718  0.001186  0.004041     1.449
   1.73381  0.68380 -0.03324 -1.06140  0.001755  0.001212  0.004005     1.448
   1.74398  0.69393 -0.03235 -1.05800  0.001803  0.001244  0.003942     1.450
   1.75416  0.70407 -0.03145 -1.05506  0.001847  0.001274  0.003890     1.450
   1.76433  0.71420 -0.03054 -1.05159  0.001896  0.001306  0.003828     1.452
   1.77450  0.72433 -0.02963 -1.04931  0.001935  0.001333  0.003794     1.452
   1.78467  0.73446 -0.02870 -1.04584  0.001985  0.001366  0.003735     1.453
   1.79486  0.74460 -0.02776 -1.04240  0.002035  0.001399  0.003679     1.455
   1.80503  0.75473 -0.02682 -1.03963  0.002079  0.001429  0.003638     1.455
   1.81520  0.76486 -0.02587 -1.03690  0.002123  0.001460  0.003599     1.455
   1.82538  0.77499 -0.02490 -1.03282  0.002181  0.001497  0.003534     1.457
   1.83556  0.78512 -0.02393 -1.02990  0.002228  0.001528  0.003493     1.458
   1.84573  0.79525 -0.02295 -1.02658  0.002279  0.001562  0.003446     1.459
   1.85591  0.80538 -0.02196 -1.02285  0.002335  0.001599  0.003392     1.460
   1.86608  0.81550 -0.02097 -1.02002  0.002381  0.001631  0.003356     1.460
   1.87625  0.82562 -0.01996 -1.01620  0.002439  0.001668  0.003302     1.462
   1.88642  0.83574 -0.01894 -1.01214  0.002501  0.001708  0.003245     1.464
   1.89658  0.84585 -0.01792 -1.00888  0.002554  0.001743  0.003204     1.465
   1.90675  0.85596 -0.01688 -1.00431  0.002623  0.001787  0.003140     1.468
   1.91690  0.86606 -0.01584 -1.00083  0.002680  0.001824  0.003098     1.469
   1.92705  0.87615 -0.01478 -0.99603  0.002755  0.001871  0.003032     1.473
   1.93718  0.88623 -0.01371 -0.99114  0.002833  0.001918  0.002966     1.476
   1.94730  0.89629 -0.01264 -0.98682  0.002903  0.001963  0.002912     1.479
   1.95739  0.90632 -0.01155 -0.98143  0.002991  0.002016  0.002840     1.484
   1.96743  0.91630 -0.01045 -0.97551  0.003089  0.002074  0.002760     1.489
   1.97740  0.92621 -0.00934 -0.96940  0.003192  0.002134  0.002679     1.496
   1.98727  0.93602 -0.00822 -0.96252  0.003312  0.002202  0.002587     1.504
   1.99699  0.94567 -0.00708 -0.95407  0.003464  0.002285  0.002470     1.516
   2.00652  0.95513 -0.00592 -0.94383  0.003659  0.002386  0.002326     1.533
   2.01578  0.96431 -0.00475 -0.93193  0.003903  0.002508  0.002157     1.556
   2.02465  0.97311 -0.00357 -0.91695  0.004245  0.002669  0.001943     1.591
   2.03304  0.98142 -0.00244 -0.90107  0.004658  0.002852  0.001719     1.633
   2.04075  0.98906 -0.00140 -0.88493  0.005147  0.003055  0.001495     1.685
   2.05178  1.00000  0.00000 -0.85404  0.006387  0.003501  0.001064     1.825
   2.05178  1.00010  0.00000  0.85404  0.010917  0.006357  0.000000     1.717
   2.05934  1.00765  0.00024  0.87841  0.009168  0.005736  0.000000     1.598
   2.06749  1.01581  0.00038  0.89125  0.008394  0.005446  0.000000     1.541
