#    s        x        y     Ue/Vinf    Dstar     Theta      Cf       H
   0.00000  1.00000  0.00000  0.89633  0.015978  0.007610  0.000486     2.099
   0.00408  0.99592  0.00019  0.89961  0.015552  0.007496  0.000513     2.075
   0.01077  0.98925  0.00065  0.90497  0.014910  0.007316  0.000558     2.038
   0.01818  0.98187  0.00132  0.91001  0.014378  0.007152  0.000595     2.010
   0.02634  0.97376  0.00217  0.91563  0.013825  0.006975  0.000637     1.982
   0.03516  0.96499  0.00316  0.92189  0.013253  0.006786  0.000684     1.953
   0.04451  0.95570  0.00422  0.92799  0.012748  0.006608  0.000728     1.929
   0.05416  0.94612  0.00534  0.93429  0.012263  0.006431  0.000772     1.907
   0.06396  0.93638  0.00648  0.94012  0.011855  0.006273  0.000809     1.890
   0.07383  0.92658  0.00766  0.94609  0.011459  0.006116  0.000847     1.874
   0.08374  0.91675  0.00886  0.95169  0.011117  0.005973  0.000881     1.861
   0.09366  0.90690  0.01010  0.95746  0.010778  0.005831  0.000916     1.848
   0.10360  0.89705  0.01138  0.96328  0.010453  0.005692  0.000952     1.836
   0.11355  0.88719  0.01270  0.96935  0.010125  0.005552  0.000990     1.824
   0.12352  0.87731  0.01405  0.97533  0.009821  0.005418  0.001027     1.813
   0.13349  0.86743  0.01543  0.98134  0.009529  0.005287  0.001064     1.802
   0.14349  0.85753  0.01685  0.98761  0.009236  0.005156  0.001104     1.791
   0.15351  0.84762  0.01830  0.99390  0.008955  0.005028  0.001144     1.781
   0.16353  0.83771  0.01978  1.00038  0.008677  0.004900  0.001186     1.771
   0.17357  0.82778  0.02129  1.00702  0.008404  0.004774  0.001230     1.761
   0.18362  0.81785  0.02282  1.01363  0.008146  0.004652  0.001273     1.751
   0.19369  0.80790  0.02438  1.02047  0.007890  0.004530  0.001319     1.742
   0.20377  0.79795  0.02596  1.02743  0.007640  0.004410  0.001366     1.732
   0.21385  0.78799  0.02756  1.03434  0.007404  0.004295  0.001412     1.724
   0.22396  0.77802  0.02919  1.04171  0.007160  0.004176  0.001464     1.714
   0.23407  0.76804  0.03083  1.04889  0.006935  0.004065  0.001513     1.706
   0.24420  0.75805  0.03249  1.05629  0.006713  0.003953  0.001566     1.698
   0.25434  0.74805  0.03417  1.06403  0.006489  0.003841  0.001622     1.689
   0.26449  0.73804  0.03586  1.07159  0.006282  0.003735  0.001676     1.682
   0.27465  0.72802  0.03757  1.07970  0.006066  0.003626  0.001737     1.673
   0.28483  0.71799  0.03928  1.08735  0.005876  0.003525  0.001791     1.667
   0.29502  0.70795  0.04101  1.09560  0.005677  0.003422  0.001854     1.659
   0.30521  0.69791  0.04275  1.10407  0.005480  0.003319  0.001920     1.651
   0.31542  0.68785  0.04449  1.11241  0.005297  0.003221  0.001983     1.644
   0.32564  0.67778  0.04624  1.12102  0.005116  0.003124  0.002050     1.638
   0.33587  0.66770  0.04799  1.12964  0.004943  0.003030  0.002117     1.631
   0.34609  0.65763  0.04974  1.13847  0.004773  0.002937  0.002188     1.625
   0.35632  0.64755  0.05149  1.14740  0.004609  0.002847  0.002259     1.619
   0.36654  0.63748  0.05324  1.15677  0.004443  0.002756  0.002337     1.612
   0.37675  0.62742  0.05498  1.16577  0.004293  0.002671  0.002409     1.607
   0.38695  0.61737  0.05672  1.17574  0.004131  0.002581  0.002497     1.600
   0.39714  0.60733  0.05844  1.18499  0.003990  0.002500  0.002573     1.596
   0.40730  0.59731  0.06015  1.19466  0.003848  0.002419  0.002655     1.591
   0.41745  0.58730  0.06185  1.20446  0.003711  0.002340  0.002740     1.586
   0.42760  0.57730  0.06354  1.21487  0.003570  0.002260  0.002835     1.580
   0.43772  0.56731  0.06521  1.22509  0.003439  0.002183  0.002927     1.575
   0.44784  0.55733  0.06686  1.23540  0.003313  0.002109  0.003020     1.571
   0.45793  0.54737  0.06849  1.24596  0.003189  0.002036  0.003118     1.566
   0.46801  0.53742  0.07010  1.25695  0.003066  0.001964  0.003223     1.561
   0.47808  0.52748  0.07168  1.26741  0.002955  0.001896  0.003318     1.558
   0.48813  0.51755  0.07324  1.27841  0.002843  0.001829  0.003424     1.554
   0.49817  0.50763  0.07478  1.29037  0.002725  0.001759  0.003548     1.549
   0.50818  0.49773  0.07628  1.30157  0.002621  0.001695  0.003657     1.546
   0.51818  0.48784  0.07775  1.31314  0.002518  0.001632  0.003773     1.542
   0.52815  0.47797  0.07919  1.32548  0.002412  0.001568  0.003906     1.538
   0.53811  0.46811  0.08059  1.33743  0.002315  0.001509  0.004030     1.535
   0.54806  0.45826  0.08195  1.34960  0.002221  0.001450  0.004159     1.532
   0.55796  0.44844  0.08327  1.36226  0.002127  0.001392  0.004300     1.528
   0.56787  0.43862  0.08455  1.37525  0.002035  0.001335  0.004448     1.525
   0.57773  0.42883  0.08578  1.38778  0.001951  0.001281  0.004586     1.522
   0.58759  0.41905  0.08697  1.40205  0.001858  0.001224  0.004765     1.518
   0.59741  0.40929  0.08810  1.41506  0.001779  0.001174  0.004916     1.516
   0.60721  0.39955  0.08918  1.42921  0.001695  0.001121  0.005096     1.512
   0.61698  0.38983  0.09020  1.44332  0.001616  0.001071  0.005277     1.509
   0.62674  0.38012  0.09116  1.45735  0.001541  0.001023  0.005459     1.506
   0.63645  0.37045  0.09206  1.47219  0.001466  0.000975  0.005665     1.502
   0.64614  0.36080  0.09290  1.48867  0.001385  0.000926  0.005917     1.497
   0.65578  0.35119  0.09366  1.50406  0.001314  0.000880  0.006150     1.493
   0.66535  0.34164  0.09434  1.51978  0.001244  0.000836  0.006401     1.488
   0.67486  0.33215  0.09494  1.53646  0.001174  0.000792  0.006688     1.482
   0.68431  0.32272  0.09545  1.55399  0.001104  0.000748  0.007014     1.475
   0.69369  0.31335  0.09585  1.56877  0.001045  0.000710  0.007280     1.472
   0.70300  0.30404  0.09615  1.58391  0.000988  0.000673  0.007571     1.467
   0.71226  0.29478  0.09635  1.60120  0.000926  0.000635  0.007946     1.460
   0.72148  0.28556  0.09642  1.61297  0.000882  0.000605  0.008177     1.459
   0.73066  0.27638  0.09638  1.62682  0.000833  0.000573  0.008486     1.455
   0.73981  0.26723  0.09622  1.63913  0.000789  0.000543  0.008767     1.452
   0.74897  0.25808  0.09594  1.65112  0.000746  0.000515  0.009058     1.449
   0.75812  0.24894  0.09553  1.66012  0.000711  0.000490  0.009268     1.450
   0.76728  0.23979  0.09500  1.66994  0.000674  0.000465  0.009516     1.450
   0.77645  0.23065  0.09435  1.67832  0.000640  0.000441  0.009728     1.451
   0.78562  0.22151  0.09359  1.69016  0.000601  0.000415  0.010079     1.448
   0.79478  0.21239  0.09270  1.69718  0.000570  0.000393  0.010281     1.450
   0.80393  0.20330  0.09170  1.70853  0.000532  0.000368  0.010659     1.447
   0.81303  0.19426  0.09058  1.71770  0.000498  0.000344  0.010992     1.446
   0.82212  0.18526  0.08934  1.72777  0.000463  0.000320  0.011391     1.444
   0.83116  0.17632  0.08798  1.73792  0.000428  0.000297  0.011831     1.442
   0.84018  0.16743  0.08649  1.74630  0.000395  0.000274  0.012213     1.443
   0.84913  0.15862  0.08488  1.75672  0.000362  0.000250  0.012640     1.445
   0.85804  0.14988  0.08314  1.76417  0.000334  0.000229  0.012730     1.463
   0.86691  0.14121  0.08127  1.77287  0.000314  0.000207  0.012184     1.514
   0.87572  0.13263  0.07927  1.78150  0.000313  0.000188  0.009927     1.662
   0.88446  0.12416  0.07714  1.79715  0.000353  0.000172  0.005420     2.055
   0.89313  0.11579  0.07487  1.83001  0.000446  0.000155  0.001532     2.881
   0.90170  0.10756  0.07248  1.83861  0.000448  0.000149  0.001279     3.001
   0.91017  0.09948  0.06995  1.84709  0.000441  0.000144  0.001202     3.053
   0.91851  0.09157  0.06730  1.85854  0.000419  0.000138  0.001336     3.024
   0.92668  0.08388  0.06453  1.87029  0.000397  0.000133  0.001480     2.997
   0.93469  0.07641  0.06164  1.88225  0.000377  0.000127  0.001617     2.977
   0.94247  0.06922  0.05866  1.89560  0.000352  0.000120  0.001906     2.919
   0.95001  0.06234  0.05559  1.90775  0.000332  0.000115  0.002102     2.896
   0.95725  0.05581  0.05246  1.92004  0.000313  0.000109  0.002322     2.872
   0.96416  0.04967  0.04930  1.93255  0.000294  0.000103  0.002597     2.842
   0.97069  0.04395  0.04614  1.94520  0.000274  0.000098  0.002976     2.798
   0.97681  0.03869  0.04301  1.95564  0.000259  0.000093  0.003169     2.795
   0.98248  0.03391  0.03996  1.96564  0.000248  0.000088  0.003259     2.811
   0.98770  0.02960  0.03702  1.97804  0.000231  0.000083  0.003681     2.777
   0.99248  0.02574  0.03420  1.98924  0.000216  0.000079  0.004108     2.748
   0.99682  0.02232  0.03152  1.99938  0.000203  0.000075  0.004571     2.719
   1.00077  0.01930  0.02898  2.00563  0.000197  0.000071  0.004428     2.768
   1.00435  0.01663  0.02659  2.01535  0.000188  0.000068  0.004586     2.781
   1.00761  0.01427  0.02434  2.02861  0.000172  0.000064  0.005518     2.710
   1.01059  0.01219  0.02221  2.03676  0.000163  0.000060  0.005943     2.699
   1.01331  0.01036  0.02020  2.04193  0.000159  0.000058  0.005640     2.760
   1.01579  0.00875  0.01831  2.05352  0.000148  0.000054  0.006392     2.723
   1.01809  0.00732  0.01651  2.06214  0.000141  0.000052  0.006697     2.730
   1.02022  0.00606  0.01480  2.07146  0.000134  0.000049  0.007055     2.734
   1.02219  0.00495  0.01317  2.08048  0.000128  0.000046  0.007053     2.771
   1.02401  0.00398  0.01163  2.09693  0.000114  0.000043  0.009272     2.652
   1.02571  0.00314  0.01015  2.10273  0.000107  0.000040  0.009826     2.653
   1.02731  0.00241  0.00873  2.11205  0.000097  0.000038  0.012045     2.570
   1.02880  0.00180  0.00737  2.10704  0.000098  0.000036  0.010011     2.713
   1.03022  0.00127  0.00605  2.12130  0.000088  0.000033  0.012593     2.624
   1.03155  0.00084  0.00479  2.12584  0.000082  0.000031  0.013238     2.638
   1.03282  0.00050  0.00357  2.13345  0.000075  0.000029  0.015263     2.602
   1.03402  0.00025  0.00239  2.13560  0.000073  0.000027  0.013505     2.728
   1.03517  0.00008  0.00126  2.15596  0.000068  0.000024  0.012443     2.849
   1.03627  0.00000  0.00016  2.19270  0.000050  0.000020  0.025159     2.528
   1.03736  0.00005 -0.00093  2.18250  0.000045  0.000017  0.026487     2.583
   1.03847  0.00026 -0.00202  2.12199  0.000031  0.000014  0.057559     2.148
   1.03963  0.00070 -0.00309  1.83609  0.000034  0.000016  0.043776     2.167
   1.04084  0.00131 -0.00414  1.59233  0.000037  0.000017  0.036371     2.132
   1.04212  0.00206 -0.00518  1.37363  0.000042  0.000019  0.026418     2.175
   1.04347  0.00292 -0.00621  1.19684  0.000045  0.000021  0.022573     2.132
   1.04490  0.00391 -0.00725  1.03170  0.000051  0.000023  0.016211     2.185
   1.04643  0.00501 -0.00831  0.89966  0.000054  0.000025  0.013716     2.161
   1.04806  0.00623 -0.00939  0.77448  0.000059  0.000027  0.010460     2.188
   1.04981  0.00759 -0.01050  0.66538  0.000063  0.000029  0.008488     2.185
   1.05172  0.00911 -0.01165  0.56205  0.000067  0.000031  0.006601     2.198
   1.05377  0.01079 -0.01283  0.46707  0.000071  0.000032  0.005163     2.203
   1.05602  0.01267 -0.01406  0.37383  0.000076  0.000035  0.003949     2.185
   1.05847  0.01477 -0.01533  0.28737  0.000084  0.000038  0.002663     2.221
   1.06117  0.01711 -0.01667  0.20907  0.000087  0.000039  0.001884     2.212
   1.06414  0.01973 -0.01807  0.13107  0.000094  0.000043  0.001087     2.212
   1.06744  0.02267 -0.01956  0.05951  0.000103  0.000046  0.000446     2.230
   1.07110  0.02598 -0.02114 -0.01110  0.000103  0.000046  0.000083     2.230
   1.07520  0.02972 -0.02281 -0.07702  0.000118  0.000053  0.000498     2.241
   1.07976  0.03393 -0.02457 -0.14256  0.000119  0.000053  0.000929     2.222
   1.08485  0.03867 -0.02642 -0.20307  0.000133  0.000058  0.001124     2.277
   1.09052  0.04399 -0.02837 -0.26262  0.000136  0.000061  0.001484     2.227
   1.09676  0.04990 -0.03037 -0.31876  0.000150  0.000066  0.001564     2.281
   1.10353  0.05636 -0.03241 -0.36986  0.000158  0.000070  0.001751     2.260
   1.11081  0.06334 -0.03446 -0.41937  0.000167  0.000074  0.001863     2.268
   1.11849  0.07076 -0.03647 -0.46380  0.000178  0.000078  0.001907     2.282
   1.12654  0.07856 -0.03843 -0.50486  0.000188  0.000082  0.001978     2.279
   1.13483  0.08664 -0.04030 -0.54208  0.000198  0.000087  0.001993     2.288
   1.14336  0.09498 -0.04207 -0.57447  0.000211  0.000091  0.001962     2.303
   1.15204  0.10350 -0.04374 -0.60550  0.000218  0.000095  0.002024     2.289
   1.16085  0.11218 -0.04529 -0.63303  0.000230  0.000100  0.001978     2.306
   1.16978  0.12099 -0.04672 -0.65658  0.000242  0.000104  0.001918     2.320
   1.17880  0.12991 -0.04804 -0.67919  0.000250  0.000108  0.001937     2.311
   1.18789  0.13892 -0.04925 -0.69912  0.000262  0.000113  0.001881     2.324
   1.19704  0.14801 -0.05035 -0.71768  0.000272  0.000117  0.001864     2.324
   1.20626  0.15717 -0.05134 -0.73372  0.000284  0.000121  0.001798     2.338
   1.21553  0.16640 -0.05222 -0.74850  0.000295  0.000126  0.001764     2.341
   1.22485  0.17569 -0.05300 -0.76114  0.000308  0.000131  0.001693     2.356
   1.23424  0.18505 -0.05369 -0.77330  0.000317  0.000135  0.001671     2.354
   1.24368  0.19447 -0.05429 -0.78383  0.000330  0.000140  0.001611     2.365
   1.25317  0.20395 -0.05480 -0.79321  0.000342  0.000144  0.001557     2.374
   1.26272  0.21349 -0.05523 -0.80165  0.000355  0.000149  0.001509     2.381
   1.27232  0.22308 -0.05559 -0.80971  0.000365  0.000153  0.001478     2.382
   1.28197  0.23273 -0.05588 -0.81725  0.000376  0.000158  0.001447     2.384
   1.29165  0.24241 -0.05610 -0.82421  0.000387  0.000162  0.001414     2.387
   1.30138  0.25213 -0.05625 -0.82915  0.000404  0.000167  0.001328     2.413
   1.31113  0.26188 -0.05635 -0.83540  0.000411  0.000171  0.001335     2.398
   1.32091  0.27166 -0.05639 -0.84017  0.000424  0.000176  0.001283     2.411
   1.33072  0.28147 -0.05638 -0.84511  0.000434  0.000180  0.001262     2.410
   1.34055  0.29130 -0.05632 -0.84972  0.000445  0.000184  0.001238     2.412
   1.35041  0.30116 -0.05621 -0.85392  0.000456  0.000189  0.001209     2.416
   1.36029  0.31104 -0.05605 -0.85733  0.000469  0.000193  0.001165     2.427
   1.37019  0.32094 -0.05585 -0.86079  0.000480  0.000198  0.001140     2.430
   1.38011  0.33086 -0.05561 -0.86372  0.000492  0.000202  0.001106     2.438
   1.39006  0.34080 -0.05533 -0.86662  0.000503  0.000206  0.001083     2.440
   1.40002  0.35076 -0.05502 -0.86982  0.000511  0.000210  0.001076     2.435
   1.41001  0.36074 -0.05467 -0.87177  0.000527  0.000215  0.001030     2.452
   1.42001  0.37074 -0.05429 -0.87429  0.000536  0.000219  0.001017     2.449
   1.43002  0.38074 -0.05389 -0.87687  0.000544  0.000222  0.001008     2.446
   1.44006  0.39077 -0.05345 -0.87879  0.000556  0.000227  0.000980     2.454
   1.45010  0.40080 -0.05299 -0.88095  0.000566  0.000231  0.000967     2.453
   1.46015  0.41084 -0.05250 -0.88267  0.000577  0.000235  0.000943     2.460
   1.47023  0.42090 -0.05199 -0.88436  0.000588  0.000239  0.000924     2.463
   1.48031  0.43097 -0.05146 -0.88627  0.000596  0.000242  0.000916     2.460
   1.49041  0.44105 -0.05091 -0.88798  0.000605  0.000246  0.000903     2.461
   1.50051  0.45114 -0.05034 -0.88972  0.000614  0.000250  0.000893     2.460
   1.51062  0.46123 -0.04975 -0.89099  0.000626  0.000254  0.000871     2.468
   1.52075  0.47134 -0.04914 -0.89255  0.000634  0.000257  0.000862     2.466
   1.53088  0.48145 -0.04852 -0.89384  0.000644  0.000261  0.000847     2.470
   1.54101  0.49156 -0.04789 -0.89575  0.000649  0.000264  0.000852     2.460
   1.55114  0.50167 -0.04724 -0.89727  0.000657  0.000267  0.000843     2.459
   1.56127  0.51178 -0.04657 -0.89825  0.000669  0.000271  0.000820     2.469
   1.57141  0.52190 -0.04590 -0.90048  0.000670  0.000273  0.000837     2.451
   1.58155  0.53201 -0.04520 -0.90086  0.000687  0.000278  0.000798     2.473
   1.59167  0.54211 -0.04450 -0.90296  0.000687  0.000280  0.000814     2.455
   1.60181  0.55222 -0.04378 -0.90439  0.000694  0.000283  0.000808     2.454
   1.61194  0.56233 -0.04304 -0.90498  0.000709  0.000287  0.000779     2.470
   1.62208  0.57244 -0.04229 -0.90620  0.000716  0.000290  0.000774     2.468
   1.63222  0.58255 -0.04153 -0.90725  0.000724  0.000293  0.000764     2.470
   1.64236  0.59266 -0.04076 -0.90867  0.000729  0.000296  0.000765     2.464
   1.65251  0.60278 -0.03997 -0.90956  0.000739  0.000299  0.000752     2.469
   1.66266  0.61290 -0.03916 -0.91003  0.000752  0.000303  0.000730     2.480
   1.67281  0.62302 -0.03835 -0.91076  0.000761  0.000307  0.000719     2.484
   1.68298  0.63315 -0.03753 -0.91225  0.000763  0.000309  0.000729     2.471
   1.69314  0.64328 -0.03669 -0.91264  0.000776  0.000312  0.000708     2.483
   1.70331  0.65341 -0.03584 -0.91339  0.000784  0.000316  0.000700     2.485
   1.71347  0.66354 -0.03498 -0.91385  0.000795  0.000319  0.000686     2.491
   1.72364  0.67367 -0.03411 -0.91431  0.000805  0.000323  0.000673     2.497
   1.73381  0.68380 -0.03324 -0.91553  0.000807  0.000325  0.000682     2.485
   1.74398  0.69393 -0.03235 -0.91591  0.000818  0.000328  0.000667     2.492
   1.75416  0.70407 -0.03145 -0.91653  0.000826  0.000331  0.000661     2.493
   1.76433  0.71420 -0.03054 -0.91661  0.000839  0.000335  0.000642     2.506
   1.77450  0.72433 -0.02963 -0.91770  0.000841  0.000337  0.000650     2.493
   1.78467  0.73446 -0.02870 -0.91789  0.000853  0.000341  0.000635     2.503
   1.79486  0.74460 -0.02776 -0.91796  0.000865  0.000344  0.000619     2.513
   1.80503  0.75473 -0.02682 -0.91844  0.000872  0.000347  0.000615     2.512
   1.81520  0.76486 -0.02587 -0.91932  0.000874  0.000349  0.000620     2.502
   1.82538  0.77499 -0.02490 -0.91867  0.000895  0.000354  0.000589     2.528
   1.83556  0.78512 -0.02393 -0.91923  0.000900  0.000357  0.000590     2.522
   1.84573  0.79525 -0.02295 -0.91937  0.000910  0.000360  0.000581     2.526
   1.85591  0.80538 -0.02196 -0.91911  0.000924  0.000364  0.000563     2.539
   1.86608  0.81550 -0.02097 -0.91963  0.000928  0.000366  0.000566     2.532
   1.87625  0.82562 -0.01996 -0.91940  0.000942  0.000370  0.000551     2.543
   1.88642  0.83574 -0.01894 -0.91883  0.000959  0.000375  0.000530     2.561
   1.89658  0.84585 -0.01792 -0.91904  0.000965  0.000377  0.000529     2.557
   1.90675  0.85596 -0.01688 -0.91794  0.000989  0.000382  0.000498     2.587
   1.91690  0.86606 -0.01584 -0.91798  0.000996  0.000385  0.000497     2.583
   1.92705  0.87615 -0.01478 -0.91670  0.001022  0.000391  0.000466     2.616
   1.93718  0.88623 -0.01371 -0.91533  0.001049  0.000396  0.000437     2.648
   1.94730  0.89629 -0.01264 -0.91406  0.001074  0.000401  0.000412     2.675
   1.95739  0.90632 -0.01155 -0.91200  0.001113  0.000408  0.000372     2.728
   1.96743  0.91630 -0.01045 -0.90943  0.001164  0.000416  0.000323     2.801
   1.97740  0.92621 -0.00934 -0.90607  0.001240  0.000425  0.000256     2.918
   1.98727  0.93602 -0.00822 -0.90237  0.001344  0.000435  0.000179     3.089
   1.99699  0.94567 -0.00708 -0.89833  0.001524  0.000446  0.000077     3.415
   2.00652  0.95513 -0.00592 -0.89561  0.001787  0.000454 -0.000013     3.935
   2.01578  0.96431 -0.00475 -0.89417  0.002149  0.000459 -0.000059     4.686
   2.02465  0.97311 -0.00357 -0.89367  0.002633  0.000460 -0.000065     5.724
   2.03304  0.98142 -0.00244 -0.89387  0.003182  0.000459 -0.000061     6.935
   2.04075  0.98906 -0.00140 -0.89441  0.003754  0.000456 -0.000058     8.233
   2.05178  1.00000  0.00000 -0.89633  0.005111  0.000444 -0.000057    11.510
   2.05178  1.00010  0.00000  0.89633  0.021089  0.008055  0.000000     2.618
   2.05934  1.00765  0.00028  0.89954  0.018605  0.007926  0.000000     2.347
   2.06749  1.01580  0.00055  0.90135  0.017311  0.007859  0.000000     2.203
