#    s        x        y     Ue/Vinf    Dstar     Theta      Cf       H
   0.00000  1.00000  0.00000  0.97752  0.042709  0.013563  0.000050     3.149
   0.00377  0.99624 -0.00023  0.97810  0.042363  0.013522  0.000055     3.133
   0.01072  0.98929 -0.00051  0.97969  0.042391  0.013410  0.000047     3.161
   0.01845  0.98156 -0.00063  0.98136  0.042292  0.013292  0.000041     3.182
   0.02661  0.97340 -0.00056  0.98304  0.042093  0.013174  0.000038     3.195
   0.03500  0.96502 -0.00034  0.98464  0.041777  0.013063  0.000037     3.198
   0.04347  0.95655  0.00000  0.98618  0.041385  0.012958  0.000039     3.194
   0.05203  0.94800  0.00043  0.98766  0.040923  0.012857  0.000042     3.183
   0.06063  0.93942  0.00095  0.98912  0.040420  0.012759  0.000047     3.168
   0.06925  0.93082  0.00154  0.99054  0.039856  0.012665  0.000054     3.147
   0.07789  0.92221  0.00220  0.99198  0.039253  0.012571  0.000062     3.123
   0.08653  0.91359  0.00291  0.99347  0.038614  0.012474  0.000072     3.095
   0.09519  0.90497  0.00369  0.99507  0.037914  0.012372  0.000083     3.064
   0.10387  0.89633  0.00453  0.99677  0.037196  0.012265  0.000094     3.033
   0.11256  0.88769  0.00542  0.99854  0.036426  0.012157  0.000108     2.996
   0.12126  0.87904  0.00635  1.00039  0.035638  0.012045  0.000123     2.959
   0.12996  0.87039  0.00733  1.00231  0.034836  0.011931  0.000140     2.920
   0.13869  0.86172  0.00836  1.00436  0.033988  0.011811  0.000158     2.878
   0.14742  0.85306  0.00942  1.00651  0.033139  0.011689  0.000178     2.835
   0.15616  0.84438  0.01051  1.00880  0.032276  0.011561  0.000200     2.792
   0.16492  0.83570  0.01163  1.01124  0.031388  0.011428  0.000224     2.747
   0.17367  0.82702  0.01278  1.01381  0.030519  0.011290  0.000250     2.703
   0.18244  0.81833  0.01397  1.01660  0.029612  0.011145  0.000278     2.657
   0.19123  0.80963  0.01516  1.01952  0.028729  0.010997  0.000308     2.613
   0.20000  0.80094  0.01639  1.02267  0.027832  0.010841  0.000341     2.567
   0.20879  0.79224  0.01762  1.02599  0.026950  0.010681  0.000376     2.523
   0.21759  0.78353  0.01887  1.02953  0.026073  0.010515  0.000414     2.480
   0.22639  0.77482  0.02015  1.03334  0.025184  0.010342  0.000456     2.435
   0.23520  0.76611  0.02143  1.03734  0.024320  0.010165  0.000500     2.393
   0.24400  0.75740  0.02273  1.04157  0.023472  0.009984  0.000547     2.351
   0.25283  0.74867  0.02403  1.04607  0.022628  0.009797  0.000598     2.310
   0.26165  0.73995  0.02534  1.05084  0.021793  0.009605  0.000653     2.269
   0.27047  0.73122  0.02666  1.05579  0.020996  0.009413  0.000709     2.230
   0.27931  0.72248  0.02798  1.06106  0.020201  0.009215  0.000771     2.192
   0.28815  0.71374  0.02930  1.06661  0.019421  0.009014  0.000838     2.155
   0.29698  0.70501  0.03063  1.07238  0.018669  0.008812  0.000907     2.119
   0.30581  0.69628  0.03194  1.07840  0.017941  0.008608  0.000980     2.084
   0.31463  0.68756  0.03324  1.08459  0.017245  0.008407  0.001056     2.051
   0.32344  0.67884  0.03455  1.09116  0.016553  0.008200  0.001139     2.019
   0.33224  0.67014  0.03583  1.09777  0.015908  0.008000  0.001222     1.988
   0.34104  0.66143  0.03710  1.10471  0.015274  0.007798  0.001310     1.959
   0.34982  0.65274  0.03836  1.11170  0.014681  0.007602  0.001400     1.931
   0.35861  0.64404  0.03959  1.11890  0.014110  0.007407  0.001493     1.905
   0.36739  0.63534  0.04081  1.12621  0.013567  0.007217  0.001589     1.880
   0.37617  0.62665  0.04200  1.13358  0.013055  0.007032  0.001686     1.857
   0.38493  0.61796  0.04318  1.14112  0.012563  0.006849  0.001786     1.834
   0.39370  0.60927  0.04433  1.14864  0.012103  0.006673  0.001886     1.814
   0.40246  0.60058  0.04545  1.15640  0.011653  0.006498  0.001991     1.793
   0.41122  0.59189  0.04655  1.16395  0.011244  0.006334  0.002093     1.775
   0.41999  0.58319  0.04763  1.17182  0.010838  0.006169  0.002201     1.757
   0.42874  0.57450  0.04867  1.17937  0.010474  0.006015  0.002303     1.741
   0.43749  0.56581  0.04969  1.18716  0.010115  0.005862  0.002411     1.726
   0.44625  0.55711  0.05068  1.19484  0.009780  0.005716  0.002517     1.711
   0.45500  0.54841  0.05164  1.20257  0.009460  0.005573  0.002625     1.697
   0.46375  0.53971  0.05257  1.21019  0.009160  0.005437  0.002732     1.685
   0.47249  0.53101  0.05347  1.21797  0.008867  0.005302  0.002842     1.672
   0.48124  0.52231  0.05433  1.22536  0.008603  0.005178  0.002945     1.662
   0.48998  0.51361  0.05517  1.23322  0.008333  0.005050  0.003058     1.650
   0.49872  0.50491  0.05598  1.24073  0.008087  0.004931  0.003165     1.640
   0.50746  0.49620  0.05674  1.24791  0.007863  0.004819  0.003265     1.632
   0.51620  0.48749  0.05749  1.25563  0.007629  0.004704  0.003378     1.622
   0.52494  0.47878  0.05819  1.26312  0.007412  0.004594  0.003486     1.613
   0.53367  0.47007  0.05886  1.27011  0.007220  0.004494  0.003584     1.606
   0.54241  0.46136  0.05951  1.27787  0.007011  0.004387  0.003700     1.598
   0.55115  0.45264  0.06010  1.28484  0.006832  0.004293  0.003798     1.592
   0.55988  0.44393  0.06067  1.29220  0.006649  0.004196  0.003907     1.585
   0.56861  0.43521  0.06121  1.29961  0.006471  0.004101  0.004016     1.578
   0.57735  0.42649  0.06171  1.30719  0.006295  0.004006  0.004131     1.571
   0.58607  0.41778  0.06217  1.31405  0.006143  0.003921  0.004229     1.567
   0.59480  0.40906  0.06260  1.32201  0.005969  0.003827  0.004354     1.560
   0.60353  0.40034  0.06298  1.32866  0.005832  0.003749  0.004449     1.556
   0.61226  0.39162  0.06334  1.33599  0.005683  0.003665  0.004559     1.550
   0.62098  0.38290  0.06365  1.34340  0.005538  0.003583  0.004673     1.545
   0.62971  0.37418  0.06393  1.35066  0.005400  0.003504  0.004783     1.541
   0.63842  0.36547  0.06417  1.35873  0.005250  0.003420  0.004914     1.535
   0.64714  0.35675  0.06437  1.36599  0.005121  0.003345  0.005025     1.531
   0.65585  0.34804  0.06452  1.37341  0.004994  0.003270  0.005140     1.527
   0.66457  0.33932  0.06464  1.38126  0.004862  0.003193  0.005267     1.523
   0.67328  0.33061  0.06471  1.38858  0.004743  0.003122  0.005381     1.519
   0.68199  0.32190  0.06474  1.39645  0.004619  0.003049  0.005509     1.515
   0.69069  0.31320  0.06473  1.40445  0.004497  0.002976  0.005641     1.511
   0.69940  0.30450  0.06467  1.41255  0.004377  0.002904  0.005776     1.507
   0.70809  0.29581  0.06457  1.42104  0.004255  0.002831  0.005922     1.503
   0.71678  0.28712  0.06442  1.42930  0.004141  0.002762  0.006062     1.499
   0.72547  0.27843  0.06422  1.43784  0.004026  0.002692  0.006210     1.495
   0.73414  0.26976  0.06396  1.44605  0.003920  0.002626  0.006348     1.492
   0.74282  0.26109  0.06366  1.45455  0.003813  0.002560  0.006495     1.489
   0.75150  0.25242  0.06331  1.46382  0.003700  0.002491  0.006664     1.485
   0.76016  0.24377  0.06290  1.47275  0.003595  0.002425  0.006822     1.482
   0.76881  0.23513  0.06243  1.48177  0.003493  0.002361  0.006983     1.479
   0.77746  0.22649  0.06190  1.49122  0.003389  0.002296  0.007155     1.476
   0.78610  0.21787  0.06131  1.50133  0.003282  0.002229  0.007347     1.473
   0.79474  0.20926  0.06065  1.51060  0.003188  0.002168  0.007512     1.471
   0.80336  0.20067  0.05993  1.52003  0.003095  0.002107  0.007681     1.469
   0.81198  0.19209  0.05914  1.53074  0.002994  0.002042  0.007885     1.466
   0.82059  0.18352  0.05828  1.54135  0.002898  0.001980  0.008085     1.463
   0.82918  0.17498  0.05735  1.55185  0.002806  0.001919  0.008278     1.462
   0.83776  0.16646  0.05634  1.56314  0.002712  0.001857  0.008492     1.460
   0.84634  0.15795  0.05525  1.57419  0.002623  0.001798  0.008691     1.459
   0.85490  0.14947  0.05408  1.58584  0.002534  0.001738  0.008903     1.458
   0.86345  0.14101  0.05282  1.59824  0.002444  0.001677  0.009131     1.458
   0.87199  0.13258  0.05148  1.61123  0.002354  0.001615  0.009368     1.457
   0.88051  0.12418  0.05004  1.62462  0.002267  0.001555  0.009604     1.458
   0.88901  0.11582  0.04850  1.63801  0.002184  0.001496  0.009820     1.460
   0.89750  0.10749  0.04687  1.65394  0.002091  0.001431  0.010105     1.461
   0.90595  0.09922  0.04514  1.67161  0.001995  0.001364  0.010426     1.462
   0.91437  0.09100  0.04329  1.68841  0.001910  0.001302  0.010676     1.467
   0.92276  0.08285  0.04132  1.70924  0.001812  0.001233  0.011031     1.470
   0.93110  0.07477  0.03923  1.73028  0.001723  0.001166  0.011327     1.477
   0.93939  0.06679  0.03700  1.75537  0.001624  0.001094  0.011695     1.485
   0.94760  0.05893  0.03463  1.78332  0.001526  0.001020  0.012054     1.496
   0.95573  0.05121  0.03210  1.81309  0.001437  0.000948  0.012294     1.515
   0.96373  0.04367  0.02940  1.84851  0.001344  0.000871  0.012484     1.542
   0.97159  0.03636  0.02653  1.88929  0.001257  0.000793  0.012429     1.586
   0.97921  0.02937  0.02348  1.93927  0.001176  0.000709  0.011986     1.657
   0.98647  0.02285  0.02030  1.99759  0.001123  0.000626  0.010484     1.795
   0.99316  0.01700  0.01705  2.07656  0.001097  0.000531  0.007555     2.068
   0.99891  0.01215  0.01396  2.18778  0.001130  0.000419  0.003911     2.695
   1.00353  0.00844  0.01121  2.36172  0.001180  0.000276 -0.000693     4.282
   1.00707  0.00576  0.00889  2.59370  0.001162  0.000119 -0.001462     9.789
   1.00977  0.00386  0.00698  2.73239  0.001032  0.000053 -0.005940    19.479
   1.01187  0.00251  0.00537  2.74595  0.000843  0.000049 -0.006525    17.299
   1.01354  0.00154  0.00401  2.75953  0.000632  0.000045 -0.007131    13.913
   1.01493  0.00085  0.00280  2.77870  0.000455  0.000042 -0.007985    10.886
   1.01611  0.00037  0.00172  2.81024  0.000284  0.000037 -0.009593     7.597
   1.01713  0.00008  0.00074  2.88499  0.000146  0.000031 -0.011962     4.719
   1.01805  0.00000 -0.00018  3.02517  0.000055  0.000022  0.135434     2.528
   1.01898  0.00023 -0.00107  2.76469  0.000038  0.000018  0.269206     2.093
   1.02003  0.00080 -0.00195  2.09397  0.000052  0.000024  0.141103     2.154
   1.02125  0.00162 -0.00286  1.65467  0.000061  0.000029  0.098536     2.113
   1.02271  0.00271 -0.00383  1.29212  0.000077  0.000035  0.057603     2.172
   1.02452  0.00415 -0.00492  1.01380  0.000088  0.000041  0.040127     2.158
   1.02681  0.00607 -0.00617  0.75232  0.000105  0.000049  0.024460     2.170
   1.02984  0.00871 -0.00767  0.52628  0.000125  0.000056  0.013891     2.215
   1.03392  0.01237 -0.00947  0.31049  0.000141  0.000064  0.007409     2.189
   1.03926  0.01730 -0.01151  0.11811  0.000186  0.000083  0.002062     2.230
   1.04582  0.02349 -0.01369 -0.04413  0.000186  0.000083  0.000771     2.230
   1.05321  0.03055 -0.01587 -0.16779  0.000250  0.000110  0.002092     2.274
   1.06102  0.03809 -0.01790 -0.26770  0.000257  0.000116  0.003430     2.212
   1.06908  0.04593 -0.01978 -0.34403  0.000306  0.000132  0.003371     2.317
   1.07727  0.05394 -0.02149 -0.40746  0.000317  0.000142  0.004138     2.238
   1.08557  0.06209 -0.02306 -0.45854  0.000359  0.000155  0.003834     2.314
   1.09393  0.07033 -0.02449 -0.50340  0.000372  0.000164  0.004242     2.268
   1.10235  0.07865 -0.02579 -0.53945  0.000410  0.000177  0.003931     2.320
   1.11081  0.08702 -0.02699 -0.57189  0.000427  0.000186  0.004103     2.294
   1.11931  0.09545 -0.02808 -0.59937  0.000457  0.000197  0.003923     2.319
   1.12784  0.10392 -0.02908 -0.62430  0.000477  0.000206  0.003941     2.312
   1.13639  0.11242 -0.02998 -0.64591  0.000503  0.000216  0.003818     2.325
   1.14497  0.12096 -0.03080 -0.66580  0.000524  0.000225  0.003791     2.323
   1.15357  0.12953 -0.03155 -0.68341  0.000547  0.000235  0.003691     2.332
   1.16218  0.13812 -0.03221 -0.69862  0.000573  0.000245  0.003562     2.344
   1.17081  0.14673 -0.03282 -0.71339  0.000591  0.000253  0.003554     2.337
   1.17946  0.15536 -0.03336 -0.72606  0.000616  0.000262  0.003424     2.350
   1.18813  0.16401 -0.03385 -0.73706  0.000642  0.000272  0.003297     2.362
   1.19680  0.17267 -0.03428 -0.74974  0.000648  0.000278  0.003411     2.334
   1.20547  0.18134 -0.03466 -0.75886  0.000682  0.000288  0.003183     2.366
   1.21417  0.19003 -0.03499 -0.76839  0.000698  0.000296  0.003164     2.361
   1.22288  0.19873 -0.03527 -0.77561  0.000729  0.000306  0.002989     2.384
   1.23158  0.20743 -0.03552 -0.78443  0.000738  0.000312  0.003053     2.362
   1.24030  0.21615 -0.03571 -0.79186  0.000759  0.000320  0.002971     2.370
   1.24902  0.22487 -0.03587 -0.79724  0.000792  0.000331  0.002792     2.397
   1.25775  0.23360 -0.03600 -0.80491  0.000796  0.000336  0.002885     2.369
   1.26649  0.24234 -0.03608 -0.81025  0.000824  0.000345  0.002753     2.388
   1.27523  0.25108 -0.03613 -0.81602  0.000840  0.000352  0.002725     2.386
   1.28398  0.25983 -0.03615 -0.82008  0.000871  0.000362  0.002586     2.407
   1.29273  0.26858 -0.03615 -0.82604  0.000875  0.000367  0.002651     2.385
   1.30149  0.27734 -0.03611 -0.83004  0.000902  0.000376  0.002541     2.401
   1.31025  0.28610 -0.03605 -0.83478  0.000916  0.000382  0.002534     2.395
   1.31902  0.29487 -0.03597 -0.83811  0.000943  0.000391  0.002429     2.412
   1.32780  0.30364 -0.03586 -0.84222  0.000957  0.000398  0.002421     2.406
   1.33658  0.31242 -0.03572 -0.84579  0.000976  0.000405  0.002376     2.409
   1.34536  0.32120 -0.03556 -0.84918  0.000994  0.000412  0.002335     2.412
   1.35414  0.32998 -0.03539 -0.85223  0.001014  0.000420  0.002285     2.417
   1.36292  0.33876 -0.03519 -0.85544  0.001030  0.000426  0.002262     2.416
   1.37171  0.34755 -0.03499 -0.85826  0.001049  0.000433  0.002219     2.420
   1.38051  0.35634 -0.03475 -0.86072  0.001070  0.000441  0.002165     2.427
   1.38930  0.36513 -0.03451 -0.86343  0.001085  0.000447  0.002145     2.426
   1.39810  0.37393 -0.03425 -0.86570  0.001106  0.000455  0.002100     2.431
   1.40691  0.38273 -0.03398 -0.86900  0.001110  0.000459  0.002134     2.415
   1.41571  0.39153 -0.03368 -0.87055  0.001139  0.000468  0.002041     2.435
   1.42452  0.40033 -0.03339 -0.87330  0.001147  0.000473  0.002053     2.425
   1.43332  0.40913 -0.03308 -0.87520  0.001168  0.000480  0.002005     2.433
   1.44214  0.41794 -0.03275 -0.87744  0.001182  0.000486  0.001992     2.431
   1.45096  0.42675 -0.03241 -0.87900  0.001205  0.000494  0.001938     2.440
   1.45977  0.43556 -0.03207 -0.88119  0.001216  0.000499  0.001936     2.435
   1.46859  0.44437 -0.03171 -0.88272  0.001236  0.000506  0.001893     2.442
   1.47741  0.45318 -0.03136 -0.88500  0.001243  0.000511  0.001905     2.433
   1.48623  0.46199 -0.03099 -0.88671  0.001260  0.000517  0.001877     2.436
   1.49505  0.47081 -0.03062 -0.88874  0.001271  0.000523  0.001875     2.432
   1.50387  0.47962 -0.03022 -0.88999  0.001293  0.000530  0.001825     2.442
   1.51270  0.48844 -0.02984 -0.89215  0.001299  0.000534  0.001840     2.432
   1.52153  0.49726 -0.02944 -0.89350  0.001318  0.000541  0.001802     2.439
   1.53036  0.50608 -0.02904 -0.89529  0.001329  0.000546  0.001798     2.436
   1.53919  0.51490 -0.02863 -0.89665  0.001346  0.000552  0.001769     2.440
   1.54802  0.52372 -0.02821 -0.89823  0.001359  0.000557  0.001758     2.439
   1.55685  0.53254 -0.02780 -0.90020  0.001364  0.000561  0.001771     2.431
   1.56568  0.54136 -0.02738 -0.90193  0.001374  0.000566  0.001765     2.428
   1.57451  0.55018 -0.02695 -0.90268  0.001401  0.000573  0.001705     2.444
   1.58335  0.55901 -0.02652 -0.90491  0.001400  0.000576  0.001740     2.428
   1.59218  0.56783 -0.02609 -0.90601  0.001419  0.000583  0.001703     2.436
   1.60101  0.57665 -0.02565 -0.90770  0.001427  0.000587  0.001707     2.431
   1.60985  0.58548 -0.02521 -0.90900  0.001441  0.000592  0.001687     2.434
   1.61868  0.59430 -0.02476 -0.91063  0.001449  0.000597  0.001688     2.430
   1.62752  0.60313 -0.02432 -0.91251  0.001453  0.000600  0.001701     2.421
   1.63635  0.61195 -0.02387 -0.91361  0.001471  0.000606  0.001669     2.429
   1.64520  0.62078 -0.02342 -0.91565  0.001471  0.000609  0.001693     2.417
   1.65403  0.62960 -0.02296 -0.91667  0.001491  0.000614  0.001658     2.426
   1.66287  0.63843 -0.02251 -0.91837  0.001496  0.000618  0.001665     2.420
   1.67171  0.64726 -0.02205 -0.91990  0.001505  0.000622  0.001660     2.419
   1.68054  0.65608 -0.02159 -0.92131  0.001516  0.000627  0.001650     2.419
   1.68939  0.66491 -0.02112 -0.92263  0.001528  0.000631  0.001637     2.420
   1.69823  0.67374 -0.02066 -0.92455  0.001528  0.000634  0.001656     2.411
   1.70706  0.68256 -0.02019 -0.92572  0.001544  0.000639  0.001633     2.416
   1.71590  0.69139 -0.01972 -0.92756  0.001545  0.000642  0.001648     2.408
   1.72474  0.70021 -0.01925 -0.92877  0.001559  0.000646  0.001628     2.412
   1.73358  0.70904 -0.01878 -0.93080  0.001557  0.000649  0.001652     2.401
   1.74242  0.71787 -0.01830 -0.93202  0.001572  0.000653  0.001632     2.406
   1.75125  0.72669 -0.01782 -0.93339  0.001582  0.000657  0.001622     2.407
   1.76010  0.73552 -0.01734 -0.93543  0.001580  0.000659  0.001646     2.396
   1.76894  0.74435 -0.01686 -0.93664  0.001593  0.000664  0.001625     2.401
   1.77777  0.75317 -0.01638 -0.93846  0.001595  0.000666  0.001637     2.394
   1.78662  0.76200 -0.01590 -0.94045  0.001594  0.000668  0.001655     2.386
   1.79545  0.77082 -0.01541 -0.94194  0.001604  0.000672  0.001646     2.387
   1.80429  0.77965 -0.01492 -0.94354  0.001611  0.000675  0.001644     2.386
   1.81313  0.78847 -0.01443 -0.94562  0.001609  0.000677  0.001664     2.377
   1.82196  0.79729 -0.01393 -0.94710  0.001619  0.000680  0.001653     2.379
   1.83081  0.80612 -0.01344 -0.94907  0.001619  0.000682  0.001667     2.373
   1.83964  0.81494 -0.01294 -0.95087  0.001623  0.000685  0.001670     2.370
   1.84848  0.82377 -0.01244 -0.95283  0.001624  0.000687  0.001680     2.365
   1.85732  0.83259 -0.01194 -0.95498  0.001623  0.000688  0.001698     2.358
   1.86616  0.84142 -0.01143 -0.95654  0.001632  0.000691  0.001686     2.361
   1.87500  0.85024 -0.01093 -0.95942  0.001618  0.000691  0.001735     2.343
   1.88383  0.85906 -0.01041 -0.96088  0.001631  0.000694  0.001713     2.350
   1.89266  0.86787 -0.00990 -0.96379  0.001618  0.000694  0.001761     2.333
   1.90149  0.87669 -0.00938 -0.96607  0.001618  0.000695  0.001772     2.329
   1.91032  0.88550 -0.00886 -0.96922  0.001604  0.000693  0.001821     2.313
   1.91915  0.89432 -0.00833 -0.97101  0.001615  0.000696  0.001803     2.318
   1.92797  0.90312 -0.00780 -0.97483  0.001591  0.000693  0.001877     2.295
   1.93680  0.91193 -0.00725 -0.97703  0.001597  0.000695  0.001870     2.298
   1.94560  0.92072 -0.00670 -0.98077  0.001579  0.000693  0.001931     2.279
   1.95440  0.92950 -0.00614 -0.98423  0.001568  0.000691  0.001972     2.268
   1.96319  0.93827 -0.00557 -0.98773  0.001558  0.000690  0.002010     2.258
   1.97197  0.94703 -0.00498 -0.99260  0.001530  0.000685  0.002102     2.234
   1.98072  0.95576 -0.00436 -0.99685  0.001515  0.000682  0.002155     2.222
   1.98940  0.96441 -0.00371 -1.00109  0.001502  0.000679  0.002202     2.212
   1.99796  0.97295 -0.00303 -1.00547  0.001489  0.000676  0.002252     2.202
   2.00632  0.98127 -0.00226 -1.00740  0.001509  0.000680  0.002192     2.220
   2.01423  0.98913 -0.00140 -1.00131  0.001646  0.000705  0.001796     2.334
   2.02137  0.99622 -0.00051 -0.99154  0.001881  0.000742  0.001269     2.534
   2.02519  1.00000  0.00000 -0.97752  0.002479  0.000797  0.000428     3.111
   2.02519  1.00010  0.00001  0.97752  0.045188  0.014360  0.000000     3.147
   2.02898  1.00388  0.00034  0.97572  0.043607  0.014495  0.000000     3.009
