#    s        x        y     Ue/Vinf    Dstar     Theta      Cf       H
   0.00000  1.00000  0.00000  0.84229  0.006873  0.004011  0.001173     1.713
   0.00408  0.99592  0.00019  0.84758  0.006638  0.003916  0.001232     1.695
   0.01077  0.98925  0.00065  0.85869  0.006176  0.003727  0.001365     1.657
   0.01818  0.98187  0.00132  0.86808  0.005830  0.003576  0.001473     1.630
   0.02634  0.97376  0.00217  0.87776  0.005504  0.003427  0.001584     1.606
   0.03516  0.96499  0.00316  0.88786  0.005192  0.003280  0.001702     1.583
   0.04451  0.95570  0.00422  0.89602  0.004962  0.003164  0.001791     1.568
   0.05416  0.94612  0.00534  0.90397  0.004751  0.003056  0.001879     1.555
   0.06396  0.93638  0.00648  0.90978  0.004608  0.002976  0.001934     1.549
   0.07383  0.92658  0.00766  0.91575  0.004466  0.002896  0.001993     1.542
   0.08374  0.91675  0.00886  0.92047  0.004360  0.002832  0.002033     1.539
   0.09366  0.90690  0.01010  0.92531  0.004253  0.002768  0.002075     1.536
   0.10360  0.89705  0.01138  0.93026  0.004147  0.002705  0.002118     1.533
   0.11355  0.88719  0.01270  0.93541  0.004039  0.002640  0.002166     1.530
   0.12352  0.87731  0.01405  0.94022  0.003942  0.002581  0.002208     1.528
   0.13349  0.86743  0.01543  0.94490  0.003850  0.002523  0.002248     1.526
   0.14349  0.85753  0.01685  0.95003  0.003751  0.002463  0.002295     1.523
   0.15351  0.84762  0.01830  0.95491  0.003660  0.002407  0.002339     1.521
   0.16353  0.83771  0.01978  0.96012  0.003565  0.002348  0.002388     1.518
   0.17357  0.82778  0.02129  0.96537  0.003471  0.002291  0.002439     1.515
   0.18362  0.81785  0.02282  0.97038  0.003384  0.002236  0.002486     1.513
   0.19369  0.80790  0.02438  0.97571  0.003294  0.002180  0.002538     1.511
   0.20377  0.79795  0.02596  0.98101  0.003207  0.002126  0.002591     1.508
   0.21385  0.78799  0.02756  0.98614  0.003125  0.002074  0.002641     1.507
   0.22396  0.77802  0.02919  0.99208  0.003032  0.002017  0.002705     1.503
   0.23407  0.76804  0.03083  0.99728  0.002953  0.001967  0.002758     1.501
   0.24420  0.75805  0.03249  1.00284  0.002870  0.001915  0.002817     1.499
   0.25434  0.74805  0.03417  1.00885  0.002784  0.001861  0.002885     1.496
   0.26449  0.73804  0.03586  1.01429  0.002707  0.001812  0.002944     1.494
   0.27465  0.72802  0.03757  1.02069  0.002620  0.001758  0.003021     1.490
   0.28483  0.71799  0.03928  1.02586  0.002550  0.001713  0.003077     1.489
   0.29502  0.70795  0.04101  1.03218  0.002468  0.001662  0.003155     1.485
   0.30521  0.69791  0.04275  1.03874  0.002386  0.001611  0.003240     1.481
   0.31542  0.68785  0.04449  1.04450  0.002315  0.001565  0.003310     1.479
   0.32564  0.67778  0.04624  1.05101  0.002237  0.001516  0.003397     1.476
   0.33587  0.66770  0.04799  1.05718  0.002164  0.001470  0.003480     1.473
   0.34609  0.65763  0.04974  1.06349  0.002092  0.001424  0.003567     1.470
   0.35632  0.64755  0.05149  1.06987  0.002021  0.001379  0.003657     1.466
   0.36654  0.63748  0.05324  1.07678  0.001948  0.001332  0.003761     1.462
   0.37675  0.62742  0.05498  1.08298  0.001881  0.001289  0.003854     1.459
   0.38695  0.61737  0.05672  1.09050  0.001806  0.001242  0.003978     1.454
   0.39714  0.60733  0.05844  1.09670  0.001743  0.001201  0.004077     1.451
   0.40730  0.59731  0.06015  1.10344  0.001677  0.001159  0.004191     1.447
   0.41745  0.58730  0.06185  1.11018  0.001613  0.001117  0.004309     1.443
   0.42760  0.57730  0.06354  1.11781  0.001544  0.001074  0.004453     1.438
   0.43772  0.56731  0.06521  1.12474  0.001481  0.001033  0.004585     1.434
   0.44784  0.55733  0.06686  1.13164  0.001420  0.000993  0.004722     1.430
   0.45793  0.54737  0.06849  1.13881  0.001359  0.000953  0.004870     1.425
   0.46801  0.53742  0.07010  1.14646  0.001296  0.000913  0.005035     1.420
   0.47808  0.52748  0.07168  1.15289  0.001241  0.000876  0.005175     1.416
   0.48813  0.51755  0.07324  1.16007  0.001185  0.000839  0.005335     1.413
   0.49817  0.50763  0.07478  1.16831  0.001124  0.000799  0.005526     1.408
   0.50818  0.49773  0.07628  1.17507  0.001073  0.000763  0.005678     1.406
   0.51818  0.48784  0.07775  1.18199  0.001022  0.000727  0.005825     1.405
   0.52815  0.47797  0.07919  1.18963  0.000972  0.000691  0.005974     1.406
   0.53811  0.46811  0.08059  1.19642  0.000928  0.000657  0.006063     1.413
   0.54806  0.45826  0.08195  1.20250  0.000892  0.000625  0.006061     1.428
   0.55796  0.44844  0.08327  1.20867  0.000864  0.000594  0.005929     1.456
   0.56787  0.43862  0.08455  1.21403  0.000854  0.000565  0.005532     1.512
   0.57773  0.42883  0.08578  1.21783  0.000882  0.000542  0.004652     1.627
   0.58759  0.41905  0.08697  1.22475  0.000972  0.000518  0.003148     1.877
   0.59741  0.40929  0.08810  1.24370  0.001204  0.000480  0.001133     2.510
   0.60721  0.39955  0.08918  1.30047  0.001562  0.000377 -0.000096     4.141
   0.61698  0.38983  0.09020  1.30856  0.001691  0.000363 -0.000182     4.660
   0.62674  0.38012  0.09116  1.31255  0.001709  0.000356 -0.000196     4.798
   0.63645  0.37045  0.09206  1.31653  0.001657  0.000349 -0.000197     4.742
   0.64614  0.36080  0.09290  1.32072  0.001553  0.000343 -0.000181     4.533
   0.65578  0.35119  0.09366  1.32533  0.001440  0.000336 -0.000146     4.292
   0.66535  0.34164  0.09434  1.33038  0.001316  0.000328 -0.000071     4.010
   0.67486  0.33215  0.09494  1.33612  0.001187  0.000320  0.000065     3.709
   0.68431  0.32272  0.09545  1.34290  0.001064  0.000311  0.000273     3.424
   0.69369  0.31335  0.09585  1.35007  0.000974  0.000301  0.000473     3.236
   0.70300  0.30404  0.09615  1.35763  0.000894  0.000291  0.000704     3.073
   0.71226  0.29478  0.09635  1.36578  0.000816  0.000280  0.001004     2.910
   0.72148  0.28556  0.09642  1.37180  0.000771  0.000272  0.001182     2.838
   0.73066  0.27638  0.09638  1.37804  0.000723  0.000263  0.001418     2.753
   0.73981  0.26723  0.09622  1.38282  0.000688  0.000255  0.001602     2.698
   0.74897  0.25808  0.09594  1.38709  0.000654  0.000247  0.001801     2.645
   0.75812  0.24894  0.09553  1.38933  0.000633  0.000241  0.001903     2.627
   0.76728  0.23979  0.09500  1.39128  0.000613  0.000235  0.002011     2.609
   0.77645  0.23065  0.09435  1.39231  0.000597  0.000229  0.002073     2.606
   0.78562  0.22151  0.09359  1.39448  0.000573  0.000223  0.002244     2.574
   0.79478  0.21239  0.09270  1.39433  0.000561  0.000217  0.002278     2.579
   0.80393  0.20330  0.09170  1.39549  0.000539  0.000211  0.002428     2.557
   0.81303  0.19426  0.09058  1.39521  0.000525  0.000205  0.002506     2.554
   0.82212  0.18526  0.08934  1.39530  0.000506  0.000199  0.002641     2.539
   0.83116  0.17632  0.08798  1.39489  0.000488  0.000193  0.002789     2.523
   0.84018  0.16743  0.08649  1.39324  0.000473  0.000188  0.002883     2.520
   0.84913  0.15862  0.08488  1.39200  0.000454  0.000182  0.003061     2.501
   0.85804  0.14988  0.08314  1.38904  0.000440  0.000176  0.003154     2.500
   0.86691  0.14121  0.08127  1.38608  0.000425  0.000170  0.003288     2.493
   0.87572  0.13263  0.07927  1.38278  0.000407  0.000164  0.003468     2.479
   0.88446  0.12416  0.07714  1.37824  0.000392  0.000159  0.003625     2.471
   0.89313  0.11579  0.07487  1.37242  0.000379  0.000153  0.003715     2.475
   0.90170  0.10756  0.07248  1.36751  0.000359  0.000147  0.004004     2.451
   0.91017  0.09948  0.06995  1.35918  0.000348  0.000141  0.004056     2.463
   0.91851  0.09157  0.06730  1.35231  0.000329  0.000135  0.004370     2.440
   0.92668  0.08388  0.06453  1.34249  0.000314  0.000129  0.004591     2.431
   0.93469  0.07641  0.06164  1.33082  0.000301  0.000124  0.004722     2.436
   0.94247  0.06922  0.05866  1.31945  0.000282  0.000117  0.005123     2.410
   0.95001  0.06234  0.05559  1.30390  0.000269  0.000112  0.005324     2.408
   0.95725  0.05581  0.05246  1.28725  0.000254  0.000106  0.005630     2.396
   0.96416  0.04967  0.04930  1.26800  0.000242  0.000101  0.005832     2.397
   0.97069  0.04395  0.04614  1.24784  0.000225  0.000095  0.006319     2.369
   0.97681  0.03869  0.04301  1.22273  0.000214  0.000090  0.006526     2.368
   0.98248  0.03391  0.03996  1.19668  0.000203  0.000086  0.006757     2.364
   0.98770  0.02960  0.03702  1.16968  0.000193  0.000081  0.006887     2.372
   0.99248  0.02574  0.03420  1.14282  0.000180  0.000077  0.007411     2.346
   0.99682  0.02232  0.03152  1.11114  0.000169  0.000073  0.007827     2.324
   1.00077  0.01930  0.02898  1.07634  0.000163  0.000070  0.007716     2.342
   1.00435  0.01663  0.02659  1.04457  0.000156  0.000066  0.007814     2.349
   1.00761  0.01427  0.02434  1.01274  0.000145  0.000062  0.008317     2.324
   1.01059  0.01219  0.02221  0.97577  0.000137  0.000059  0.008706     2.300
   1.01331  0.01036  0.02020  0.93577  0.000133  0.000057  0.008404     2.323
   1.01579  0.00875  0.01831  0.89911  0.000125  0.000054  0.008616     2.314
   1.01809  0.00732  0.01651  0.85940  0.000118  0.000052  0.008878     2.297
   1.02022  0.00606  0.01480  0.81625  0.000113  0.000049  0.008816     2.297
   1.02219  0.00495  0.01317  0.77372  0.000109  0.000047  0.008428     2.326
   1.02401  0.00398  0.01163  0.73002  0.000099  0.000044  0.009449     2.250
   1.02571  0.00314  0.01015  0.67825  0.000100  0.000043  0.007944     2.344
   1.02731  0.00241  0.00873  0.63097  0.000087  0.000039  0.009440     2.229
   1.02880  0.00180  0.00737  0.56627  0.000088  0.000039  0.008071     2.271
   1.03022  0.00127  0.00605  0.50978  0.000083  0.000036  0.007497     2.293
   1.03155  0.00084  0.00479  0.44648  0.000076  0.000034  0.007682     2.225
   1.03282  0.00050  0.00357  0.37528  0.000076  0.000033  0.006111     2.289
   1.03402  0.00025  0.00239  0.30229  0.000068  0.000031  0.005851     2.219
   1.03517  0.00008  0.00126  0.21867  0.000067  0.000030  0.004099     2.262
   1.03627  0.00000  0.00016  0.13072  0.000060  0.000027  0.002834     2.236
   1.03736  0.00005 -0.00093  0.01896  0.000055  0.000025  0.000450     2.230
   1.03847  0.00026 -0.00202 -0.10780  0.000055  0.000025  0.002558     2.230
   1.03963  0.00070 -0.00309 -0.22471  0.000060  0.000027  0.004804     2.250
   1.04084  0.00131 -0.00414 -0.31551  0.000069  0.000030  0.005733     2.275
   1.04212  0.00206 -0.00518 -0.38915  0.000076  0.000033  0.006457     2.268
   1.04347  0.00292 -0.00621 -0.45192  0.000083  0.000036  0.006770     2.281
   1.04490  0.00391 -0.00725 -0.50513  0.000091  0.000040  0.006816     2.295
   1.04643  0.00501 -0.00831 -0.54905  0.000100  0.000043  0.006618     2.313
   1.04806  0.00623 -0.00939 -0.59821  0.000100  0.000045  0.007584     2.252
   1.04981  0.00759 -0.01050 -0.63777  0.000113  0.000048  0.006688     2.333
   1.05172  0.00911 -0.01165 -0.67716  0.000116  0.000051  0.007176     2.289
   1.05377  0.01079 -0.01283 -0.71039  0.000127  0.000055  0.006561     2.336
   1.05602  0.01267 -0.01406 -0.74525  0.000132  0.000057  0.006879     2.302
   1.05847  0.01477 -0.01533 -0.77003  0.000148  0.000062  0.005854     2.380
   1.06117  0.01711 -0.01667 -0.79923  0.000151  0.000065  0.006323     2.318
   1.06414  0.01973 -0.01807 -0.82291  0.000166  0.000070  0.005633     2.370
   1.06744  0.02267 -0.01956 -0.84928  0.000172  0.000074  0.005804     2.335
   1.07110  0.02598 -0.02114 -0.87606  0.000182  0.000078  0.005662     2.338
   1.07520  0.02972 -0.02281 -0.89892  0.000196  0.000083  0.005226     2.368
   1.07976  0.03393 -0.02457 -0.92249  0.000206  0.000088  0.005158     2.357
   1.08485  0.03867 -0.02642 -0.94234  0.000223  0.000094  0.004729     2.387
   1.09052  0.04399 -0.02837 -0.96652  0.000230  0.000098  0.004891     2.348
   1.09676  0.04990 -0.03037 -0.98360  0.000253  0.000105  0.004276     2.406
   1.10353  0.05636 -0.03241 -1.00218  0.000265  0.000111  0.004259     2.384
   1.11081  0.06334 -0.03446 -1.02017  0.000279  0.000117  0.004113     2.384
   1.11849  0.07076 -0.03647 -1.03488  0.000298  0.000124  0.003826     2.405
   1.12654  0.07856 -0.03843 -1.04990  0.000311  0.000130  0.003754     2.395
   1.13483  0.08664 -0.04030 -1.06248  0.000329  0.000136  0.003548     2.408
   1.14336  0.09498 -0.04207 -1.07286  0.000347  0.000143  0.003339     2.423
   1.15204  0.10350 -0.04374 -1.08337  0.000361  0.000149  0.003266     2.417
   1.16085  0.11218 -0.04529 -1.09151  0.000380  0.000156  0.003076     2.433
   1.16978  0.12099 -0.04672 -1.09791  0.000400  0.000163  0.002891     2.450
   1.17880  0.12991 -0.04804 -1.10353  0.000417  0.000170  0.002758     2.458
   1.18789  0.13892 -0.04925 -1.10861  0.000434  0.000176  0.002651     2.462
   1.19704  0.14801 -0.05035 -1.11289  0.000452  0.000183  0.002539     2.470
   1.20626  0.15717 -0.05134 -1.11598  0.000471  0.000190  0.002402     2.485
   1.21553  0.16640 -0.05222 -1.11751  0.000495  0.000197  0.002234     2.509
   1.22485  0.17569 -0.05300 -1.11841  0.000517  0.000204  0.002097     2.527
   1.23424  0.18505 -0.05369 -1.11924  0.000536  0.000211  0.002004     2.536
   1.24368  0.19447 -0.05429 -1.11926  0.000558  0.000219  0.001891     2.552
   1.25317  0.20395 -0.05480 -1.11851  0.000583  0.000226  0.001769     2.573
   1.26272  0.21349 -0.05523 -1.11720  0.000608  0.000234  0.001652     2.595
   1.27232  0.22308 -0.05559 -1.11599  0.000630  0.000242  0.001572     2.606
   1.28197  0.23273 -0.05588 -1.11480  0.000650  0.000249  0.001508     2.614
   1.29165  0.24241 -0.05610 -1.11340  0.000672  0.000256  0.001442     2.623
   1.30138  0.25213 -0.05625 -1.11071  0.000703  0.000264  0.001320     2.658
   1.31113  0.26188 -0.05635 -1.10916  0.000721  0.000271  0.001286     2.657
   1.32091  0.27166 -0.05639 -1.10698  0.000745  0.000279  0.001219     2.673
   1.33072  0.28147 -0.05638 -1.10492  0.000767  0.000286  0.001168     2.683
   1.34055  0.29130 -0.05632 -1.10297  0.000788  0.000293  0.001128     2.688
   1.35041  0.30116 -0.05621 -1.10085  0.000810  0.000300  0.001080     2.699
   1.36029  0.31104 -0.05605 -1.09818  0.000838  0.000308  0.001011     2.723
   1.37019  0.32094 -0.05585 -1.09585  0.000861  0.000315  0.000969     2.733
   1.38011  0.33086 -0.05561 -1.09350  0.000884  0.000322  0.000929     2.744
   1.39006  0.34080 -0.05533 -1.09089  0.000911  0.000330  0.000879     2.763
   1.40002  0.35076 -0.05502 -1.08870  0.000931  0.000337  0.000854     2.766
   1.41001  0.36074 -0.05467 -1.08611  0.000957  0.000344  0.000809     2.784
   1.42001  0.37074 -0.05429 -1.08353  0.000983  0.000351  0.000770     2.800
   1.43002  0.38074 -0.05389 -1.08164  0.000998  0.000357  0.000764     2.793
   1.44006  0.39077 -0.05345 -1.07901  0.001027  0.000365  0.000721     2.814
   1.45010  0.40080 -0.05299 -1.07681  0.001048  0.000372  0.000700     2.819
   1.46015  0.41084 -0.05250 -1.07436  0.001073  0.000379  0.000668     2.834
   1.47023  0.42090 -0.05199 -1.07213  0.001095  0.000385  0.000647     2.841
   1.48031  0.43097 -0.05146 -1.06996  0.001116  0.000392  0.000628     2.847
   1.49041  0.44105 -0.05091 -1.06788  0.001136  0.000398  0.000613     2.851
   1.50051  0.45114 -0.05034 -1.06582  0.001156  0.000405  0.000597     2.856
   1.51062  0.46123 -0.04975 -1.06373  0.001178  0.000411  0.000578     2.863
   1.52075  0.47134 -0.04914 -1.06159  0.001201  0.000418  0.000558     2.874
   1.53088  0.48145 -0.04852 -1.05969  0.001220  0.000424  0.000548     2.875
   1.54101  0.49156 -0.04789 -1.05806  0.001232  0.000430  0.000547     2.867
   1.55114  0.50167 -0.04724 -1.05628  0.001250  0.000436  0.000537     2.868
   1.56127  0.51178 -0.04657 -1.05427  0.001275  0.000442  0.000516     2.882
   1.57141  0.52190 -0.04590 -1.05308  0.001279  0.000447  0.000530     2.860
   1.58155  0.53201 -0.04520 -1.05093  0.001309  0.000454  0.000500     2.884
   1.59167  0.54211 -0.04450 -1.04964  0.001317  0.000459  0.000506     2.869
   1.60181  0.55222 -0.04378 -1.04804  0.001335  0.000465  0.000497     2.872
   1.61194  0.56233 -0.04304 -1.04618  0.001360  0.000471  0.000476     2.887
   1.62208  0.57244 -0.04229 -1.04453  0.001380  0.000477  0.000465     2.892
   1.63222  0.58255 -0.04153 -1.04292  0.001398  0.000483  0.000455     2.897
   1.64236  0.59266 -0.04076 -1.04149  0.001413  0.000488  0.000452     2.895
   1.65251  0.60278 -0.03997 -1.03982  0.001435  0.000494  0.000437     2.905
   1.66266  0.61290 -0.03916 -1.03788  0.001466  0.000501  0.000413     2.929
   1.67281  0.62302 -0.03835 -1.03632  0.001485  0.000506  0.000404     2.933
   1.68298  0.63315 -0.03753 -1.03489  0.001500  0.000512  0.000401     2.931
   1.69314  0.64328 -0.03669 -1.03312  0.001527  0.000518  0.000382     2.949
   1.70331  0.65341 -0.03584 -1.03145  0.001551  0.000524  0.000369     2.962
   1.71347  0.66354 -0.03498 -1.02981  0.001575  0.000530  0.000356     2.973
   1.72364  0.67367 -0.03411 -1.02810  0.001602  0.000536  0.000341     2.990
   1.73381  0.68380 -0.03324 -1.02678  0.001614  0.000541  0.000341     2.983
   1.74398  0.69393 -0.03235 -1.02512  0.001640  0.000547  0.000327     2.999
   1.75416  0.70407 -0.03145 -1.02357  0.001662  0.000553  0.000317     3.008
   1.76433  0.71420 -0.03054 -1.02193  0.001690  0.000559  0.000304     3.025
   1.77450  0.72433 -0.02963 -1.02063  0.001702  0.000564  0.000304     3.020
   1.78467  0.73446 -0.02870 -1.01907  0.001727  0.000569  0.000292     3.033
   1.79486  0.74460 -0.02776 -1.01756  0.001751  0.000575  0.000282     3.044
   1.80503  0.75473 -0.02682 -1.01630  0.001763  0.000580  0.000283     3.039
   1.81520  0.76486 -0.02587 -1.01518  0.001771  0.000585  0.000286     3.028
   1.82538  0.77499 -0.02490 -1.01379  0.001792  0.000590  0.000279     3.036
   1.83556  0.78512 -0.02393 -1.01294  0.001788  0.000594  0.000291     3.010
   1.84573  0.79525 -0.02295 -1.01233  0.001777  0.000597  0.000309     2.975
   1.85591  0.80538 -0.02196 -1.01226  0.001749  0.000599  0.000342     2.919
   1.86608  0.81550 -0.02097 -1.00630  0.001651  0.000619  0.000548     2.668
   1.87625  0.82562 -0.01996 -0.99845  0.001534  0.000645  0.000889     2.380
   1.88642  0.83574 -0.01894 -0.99104  0.001420  0.000671  0.001358     2.115
   1.89658  0.84585 -0.01792 -0.98650  0.001317  0.000692  0.001906     1.902
   1.90675  0.85596 -0.01688 -0.98233  0.001258  0.000715  0.002376     1.760
   1.91690  0.86606 -0.01584 -0.98079  0.001212  0.000732  0.002798     1.655
   1.92705  0.87615 -0.01478 -0.97805  0.001200  0.000756  0.003080     1.589
   1.93718  0.88623 -0.01371 -0.97551  0.001202  0.000780  0.003280     1.542
   1.94730  0.89629 -0.01264 -0.97400  0.001209  0.000802  0.003435     1.508
   1.95739  0.90632 -0.01155 -0.97125  0.001230  0.000828  0.003511     1.486
   1.96743  0.91630 -0.01045 -0.96817  0.001259  0.000856  0.003545     1.470
   1.97740  0.92621 -0.00934 -0.96500  0.001292  0.000885  0.003551     1.460
   1.98727  0.93602 -0.00822 -0.96160  0.001329  0.000915  0.003535     1.453
   1.99699  0.94567 -0.00708 -0.95628  0.001381  0.000951  0.003467     1.451
   2.00652  0.95513 -0.00592 -0.94923  0.001446  0.000994  0.003359     1.455
   2.01578  0.96431 -0.00475 -0.94037  0.001527  0.001044  0.003215     1.462
   2.02465  0.97311 -0.00357 -0.92626  0.001655  0.001117  0.002971     1.482
   2.03304  0.98142 -0.00244 -0.91027  0.001810  0.001201  0.002704     1.507
   2.04075  0.98906 -0.00140 -0.89207  0.002007  0.001302  0.002406     1.541
   2.05178  1.00000  0.00000 -0.84229  0.002734  0.001619  0.001589     1.689
   2.05178  1.00010  0.00000  0.84229  0.009607  0.005630  0.000000     1.706
   2.05934  1.00765  0.00025  0.87093  0.007836  0.004985  0.000000     1.572
   2.06749  1.01581  0.00044  0.88572  0.007091  0.004697  0.000000     1.510
