#    s        x        y     Ue/Vinf    Dstar     Theta      Cf       H
   0.00000  1.00000  0.00000  0.89787  0.017415  0.007987  0.000491     2.180
   0.00408  0.99592  0.00019  0.90088  0.016964  0.007875  0.000520     2.154
   0.01077  0.98925  0.00065  0.90582  0.016280  0.007697  0.000567     2.115
   0.01818  0.98187  0.00132  0.91052  0.015713  0.007533  0.000606     2.086
   0.02634  0.97376  0.00217  0.91579  0.015122  0.007355  0.000650     2.056
   0.03516  0.96499  0.00316  0.92165  0.014509  0.007165  0.000700     2.025
   0.04451  0.95570  0.00422  0.92744  0.013962  0.006983  0.000745     1.999
   0.05416  0.94612  0.00534  0.93346  0.013434  0.006801  0.000793     1.975
   0.06396  0.93638  0.00648  0.93910  0.012984  0.006636  0.000833     1.957
   0.07383  0.92658  0.00766  0.94489  0.012548  0.006473  0.000875     1.939
   0.08374  0.91675  0.00886  0.95038  0.012166  0.006322  0.000912     1.924
   0.09366  0.90690  0.01010  0.95604  0.011789  0.006172  0.000951     1.910
   0.10360  0.89705  0.01138  0.96175  0.011428  0.006025  0.000990     1.897
   0.11355  0.88719  0.01270  0.96771  0.011064  0.005877  0.001033     1.883
   0.12352  0.87731  0.01405  0.97360  0.010725  0.005734  0.001074     1.870
   0.13349  0.86743  0.01543  0.97954  0.010400  0.005596  0.001115     1.859
   0.14349  0.85753  0.01685  0.98572  0.010074  0.005456  0.001160     1.846
   0.15351  0.84762  0.01830  0.99194  0.009762  0.005320  0.001205     1.835
   0.16353  0.83771  0.01978  0.99835  0.009453  0.005184  0.001252     1.823
   0.17357  0.82778  0.02129  1.00492  0.009150  0.005050  0.001301     1.812
   0.18362  0.81785  0.02282  1.01147  0.008863  0.004920  0.001349     1.801
   0.19369  0.80790  0.02438  1.01825  0.008578  0.004790  0.001401     1.791
   0.20377  0.79795  0.02596  1.02515  0.008301  0.004663  0.001454     1.780
   0.21385  0.78799  0.02756  1.03203  0.008039  0.004539  0.001506     1.771
   0.22396  0.77802  0.02919  1.03933  0.007769  0.004414  0.001565     1.760
   0.23407  0.76804  0.03083  1.04648  0.007520  0.004294  0.001621     1.751
   0.24420  0.75805  0.03249  1.05384  0.007274  0.004175  0.001679     1.742
   0.25434  0.74805  0.03417  1.06152  0.007027  0.004056  0.001743     1.732
   0.26449  0.73804  0.03586  1.06906  0.006798  0.003943  0.001804     1.724
   0.27465  0.72802  0.03757  1.07712  0.006561  0.003826  0.001873     1.715
   0.28483  0.71799  0.03928  1.08476  0.006350  0.003719  0.001935     1.707
   0.29502  0.70795  0.04101  1.09297  0.006130  0.003608  0.002006     1.699
   0.30521  0.69791  0.04275  1.10140  0.005914  0.003499  0.002081     1.690
   0.31542  0.68785  0.04449  1.10972  0.005713  0.003394  0.002153     1.683
   0.32564  0.67778  0.04624  1.11829  0.005513  0.003291  0.002230     1.675
   0.33587  0.66770  0.04799  1.12689  0.005323  0.003191  0.002306     1.668
   0.34609  0.65763  0.04974  1.13571  0.005136  0.003092  0.002386     1.661
   0.35632  0.64755  0.05149  1.14462  0.004957  0.002995  0.002468     1.655
   0.36654  0.63748  0.05324  1.15394  0.004775  0.002898  0.002557     1.648
   0.37675  0.62742  0.05498  1.16295  0.004610  0.002808  0.002640     1.642
   0.38695  0.61737  0.05672  1.17285  0.004434  0.002712  0.002740     1.635
   0.39714  0.60733  0.05844  1.18211  0.004279  0.002626  0.002827     1.629
   0.40730  0.59731  0.06015  1.19175  0.004124  0.002540  0.002921     1.624
   0.41745  0.58730  0.06185  1.20153  0.003974  0.002455  0.003019     1.619
   0.42760  0.57730  0.06354  1.21190  0.003821  0.002370  0.003128     1.612
   0.43772  0.56731  0.06521  1.22209  0.003678  0.002289  0.003233     1.607
   0.44784  0.55733  0.06686  1.23239  0.003540  0.002210  0.003340     1.602
   0.45793  0.54737  0.06849  1.24292  0.003405  0.002132  0.003453     1.597
   0.46801  0.53742  0.07010  1.25387  0.003271  0.002055  0.003574     1.592
   0.47808  0.52748  0.07168  1.26432  0.003150  0.001983  0.003684     1.588
   0.48813  0.51755  0.07324  1.27530  0.003027  0.001911  0.003806     1.584
   0.49817  0.50763  0.07478  1.28719  0.002900  0.001837  0.003949     1.579
   0.50818  0.49773  0.07628  1.29838  0.002786  0.001769  0.004076     1.575
   0.51818  0.48784  0.07775  1.30992  0.002674  0.001702  0.004212     1.571
   0.52815  0.47797  0.07919  1.32220  0.002560  0.001634  0.004365     1.566
   0.53811  0.46811  0.08059  1.33411  0.002455  0.001571  0.004511     1.563
   0.54806  0.45826  0.08195  1.34624  0.002352  0.001508  0.004662     1.560
   0.55796  0.44844  0.08327  1.35886  0.002250  0.001447  0.004827     1.556
   0.56787  0.43862  0.08455  1.37179  0.002150  0.001386  0.005001     1.552
   0.57773  0.42883  0.08578  1.38429  0.002059  0.001329  0.005164     1.549
   0.58759  0.41905  0.08697  1.39846  0.001959  0.001269  0.005375     1.544
   0.59741  0.40929  0.08810  1.41144  0.001872  0.001215  0.005556     1.541
   0.60721  0.39955  0.08918  1.42550  0.001782  0.001159  0.005770     1.537
   0.61698  0.38983  0.09020  1.43954  0.001696  0.001106  0.005988     1.533
   0.62674  0.38012  0.09116  1.45350  0.001614  0.001055  0.006208     1.530
   0.63645  0.37045  0.09206  1.46827  0.001532  0.001004  0.006458     1.526
   0.64614  0.36080  0.09290  1.48460  0.001445  0.000951  0.006765     1.519
   0.65578  0.35119  0.09366  1.49988  0.001367  0.000903  0.007052     1.514
   0.66535  0.34164  0.09434  1.51549  0.001291  0.000856  0.007364     1.508
   0.67486  0.33215  0.09494  1.53200  0.001214  0.000809  0.007723     1.501
   0.68431  0.32272  0.09545  1.54933  0.001138  0.000762  0.008134     1.493
   0.69369  0.31335  0.09585  1.56396  0.001073  0.000722  0.008480     1.487
   0.70300  0.30404  0.09615  1.57891  0.001010  0.000682  0.008862     1.481
   0.71226  0.29478  0.09635  1.59592  0.000943  0.000641  0.009352     1.471
   0.72148  0.28556  0.09642  1.60745  0.000893  0.000608  0.009678     1.468
   0.73066  0.27638  0.09638  1.62096  0.000838  0.000574  0.010104     1.462
   0.73981  0.26723  0.09622  1.63291  0.000789  0.000542  0.010503     1.457
   0.74897  0.25808  0.09594  1.64441  0.000741  0.000511  0.010914     1.452
   0.75812  0.24894  0.09553  1.65282  0.000701  0.000483  0.011217     1.452
   0.76728  0.23979  0.09500  1.66188  0.000661  0.000455  0.011537     1.452
   0.77645  0.23065  0.09435  1.66930  0.000625  0.000429  0.011746     1.457
   0.78562  0.22151  0.09359  1.67982  0.000587  0.000401  0.011994     1.465
   0.79478  0.21239  0.09270  1.68518  0.000562  0.000377  0.011791     1.490
   0.80393  0.20330  0.09170  1.69445  0.000540  0.000352  0.011292     1.536
   0.81303  0.19426  0.09058  1.70171  0.000541  0.000330  0.009805     1.640
   0.82212  0.18526  0.08934  1.71269  0.000575  0.000309  0.007052     1.860
   0.83116  0.17632  0.08798  1.73393  0.000661  0.000286  0.003575     2.309
   0.84018  0.16743  0.08649  1.76425  0.000774  0.000261  0.001416     2.968
   0.84913  0.15862  0.08488  1.77225  0.000794  0.000253  0.001041     3.139
   0.85804  0.14988  0.08314  1.77898  0.000791  0.000247  0.000929     3.203
   0.86691  0.14121  0.08127  1.78745  0.000768  0.000240  0.000952     3.207
   0.87572  0.13263  0.07927  1.79665  0.000741  0.000232  0.001012     3.197
   0.88446  0.12416  0.07714  1.80653  0.000711  0.000224  0.001112     3.174
   0.89313  0.11579  0.07487  1.81673  0.000683  0.000216  0.001195     3.160
   0.90170  0.10756  0.07248  1.82815  0.000644  0.000208  0.001409     3.104
   0.91017  0.09948  0.06995  1.83911  0.000617  0.000200  0.001518     3.091
   0.91851  0.09157  0.06730  1.85142  0.000580  0.000191  0.001777     3.038
   0.92668  0.08388  0.06453  1.86367  0.000547  0.000183  0.002024     2.997
   0.93469  0.07641  0.06164  1.87591  0.000517  0.000174  0.002254     2.968
   0.94247  0.06922  0.05866  1.88914  0.000482  0.000166  0.002646     2.912
   0.95001  0.06234  0.05559  1.90130  0.000455  0.000158  0.002935     2.886
   0.95725  0.05581  0.05246  1.91350  0.000428  0.000150  0.003251     2.860
   0.96416  0.04967  0.04930  1.92580  0.000402  0.000142  0.003634     2.830
   0.97069  0.04395  0.04614  1.93809  0.000375  0.000134  0.004129     2.791
   0.97681  0.03869  0.04301  1.94848  0.000355  0.000128  0.004416     2.786
   0.98248  0.03391  0.03996  1.95844  0.000339  0.000121  0.004589     2.796
   0.98770  0.02960  0.03702  1.97034  0.000317  0.000115  0.005148     2.765
   0.99248  0.02574  0.03420  1.98112  0.000297  0.000108  0.005716     2.739
   0.99682  0.02232  0.03152  1.99085  0.000278  0.000103  0.006308     2.715
   1.00077  0.01930  0.02898  1.99737  0.000270  0.000098  0.006216     2.754
   1.00435  0.01663  0.02659  2.00678  0.000257  0.000093  0.006484     2.763
   1.00761  0.01427  0.02434  2.01905  0.000236  0.000087  0.007640     2.703
   1.01059  0.01219  0.02221  2.02697  0.000224  0.000083  0.008200     2.694
   1.01331  0.01036  0.02020  2.03243  0.000218  0.000079  0.007938     2.744
   1.01579  0.00875  0.01831  2.04327  0.000203  0.000075  0.008899     2.713
   1.01809  0.00732  0.01651  2.05161  0.000193  0.000071  0.009348     2.718
   1.02022  0.00606  0.01480  2.06059  0.000183  0.000067  0.009884     2.721
   1.02219  0.00495  0.01317  2.06941  0.000174  0.000063  0.010094     2.745
   1.02401  0.00398  0.01163  2.08409  0.000156  0.000059  0.012814     2.645
   1.02571  0.00314  0.01015  2.08977  0.000147  0.000056  0.013696     2.641
   1.02731  0.00241  0.00873  2.09771  0.000134  0.000052  0.016296     2.575
   1.02880  0.00180  0.00737  2.09430  0.000134  0.000050  0.014224     2.690
   1.03022  0.00127  0.00605  2.10661  0.000120  0.000046  0.017354     2.618
   1.03155  0.00084  0.00479  2.11090  0.000113  0.000043  0.018291     2.631
   1.03282  0.00050  0.00357  2.11777  0.000103  0.000039  0.020673     2.607
   1.03402  0.00025  0.00239  2.12113  0.000099  0.000037  0.018933     2.713
   1.03517  0.00008  0.00126  2.14032  0.000092  0.000033  0.018427     2.803
   1.03627  0.00000  0.00016  2.17227  0.000070  0.000028  0.034061     2.532
   1.03736  0.00005 -0.00093  2.16167  0.000061  0.000024  0.037681     2.555
   1.03847  0.00026 -0.00202  2.09415  0.000043  0.000020  0.077223     2.150
   1.03963  0.00070 -0.00309  1.81508  0.000047  0.000022  0.059422     2.165
   1.04084  0.00131 -0.00414  1.57422  0.000051  0.000024  0.049147     2.134
   1.04212  0.00206 -0.00518  1.35831  0.000058  0.000027  0.036031     2.172
   1.04347  0.00292 -0.00621  1.18233  0.000062  0.000029  0.030475     2.134
   1.04490  0.00391 -0.00725  1.01941  0.000070  0.000032  0.022067     2.184
   1.04643  0.00501 -0.00831  0.88780  0.000074  0.000034  0.018578     2.161
   1.04806  0.00623 -0.00939  0.76362  0.000082  0.000037  0.014174     2.188
   1.04981  0.00759 -0.01050  0.65510  0.000087  0.000040  0.011493     2.185
   1.05172  0.00911 -0.01165  0.55246  0.000093  0.000042  0.008900     2.200
   1.05377  0.01079 -0.01283  0.45802  0.000098  0.000045  0.006984     2.201
   1.05602  0.01267 -0.01406  0.36507  0.000105  0.000048  0.005284     2.187
   1.05847  0.01477 -0.01533  0.27936  0.000115  0.000052  0.003564     2.221
   1.06117  0.01711 -0.01667  0.20132  0.000120  0.000054  0.002493     2.213
   1.06414  0.01973 -0.01807  0.12379  0.000130  0.000059  0.001412     2.213
   1.06744  0.02267 -0.01956  0.05258  0.000142  0.000064  0.000542     2.230
   1.07110  0.02598 -0.02114 -0.01775  0.000142  0.000064  0.000183     2.230
   1.07520  0.02972 -0.02281 -0.08334  0.000163  0.000072  0.000738     2.246
   1.07976  0.03393 -0.02457 -0.14855  0.000164  0.000074  0.001335     2.220
   1.08485  0.03867 -0.02642 -0.20886  0.000184  0.000081  0.001587     2.279
   1.09052  0.04399 -0.02837 -0.26803  0.000188  0.000085  0.002083     2.227
   1.09676  0.04990 -0.03037 -0.32402  0.000206  0.000090  0.002190     2.280
   1.10353  0.05636 -0.03241 -0.37484  0.000218  0.000097  0.002436     2.261
   1.11081  0.06334 -0.03446 -0.42411  0.000231  0.000102  0.002594     2.268
   1.11849  0.07076 -0.03647 -0.46841  0.000246  0.000108  0.002650     2.282
   1.12654  0.07856 -0.03843 -0.50925  0.000259  0.000114  0.002742     2.280
   1.13483  0.08664 -0.04030 -0.54632  0.000274  0.000120  0.002764     2.289
   1.14336  0.09498 -0.04207 -0.57862  0.000291  0.000126  0.002720     2.303
   1.15204  0.10350 -0.04374 -0.60943  0.000301  0.000131  0.002799     2.290
   1.16085  0.11218 -0.04529 -0.63688  0.000317  0.000137  0.002740     2.306
   1.16978  0.12099 -0.04672 -0.66036  0.000334  0.000144  0.002655     2.320
   1.17880  0.12991 -0.04804 -0.68282  0.000346  0.000149  0.002677     2.312
   1.18789  0.13892 -0.04925 -0.70267  0.000362  0.000156  0.002603     2.324
   1.19704  0.14801 -0.05035 -0.72113  0.000375  0.000161  0.002577     2.324
   1.20626  0.15717 -0.05134 -0.73711  0.000392  0.000168  0.002486     2.338
   1.21553  0.16640 -0.05222 -0.75182  0.000406  0.000174  0.002437     2.342
   1.22485  0.17569 -0.05300 -0.76443  0.000424  0.000180  0.002342     2.355
   1.23424  0.18505 -0.05369 -0.77648  0.000438  0.000186  0.002307     2.354
   1.24368  0.19447 -0.05429 -0.78697  0.000455  0.000192  0.002226     2.365
   1.25317  0.20395 -0.05480 -0.79631  0.000472  0.000199  0.002152     2.374
   1.26272  0.21349 -0.05523 -0.80473  0.000489  0.000205  0.002085     2.381
   1.27232  0.22308 -0.05559 -0.81272  0.000504  0.000212  0.002041     2.383
   1.28197  0.23273 -0.05588 -0.82019  0.000519  0.000218  0.001997     2.385
   1.29165  0.24241 -0.05610 -0.82709  0.000534  0.000223  0.001951     2.388
   1.30138  0.25213 -0.05625 -0.83212  0.000557  0.000231  0.001839     2.411
   1.31113  0.26188 -0.05635 -0.83823  0.000567  0.000236  0.001841     2.400
   1.32091  0.27166 -0.05639 -0.84302  0.000585  0.000243  0.001773     2.411
   1.33072  0.28147 -0.05638 -0.84790  0.000599  0.000248  0.001742     2.411
   1.34055  0.29130 -0.05632 -0.85247  0.000613  0.000254  0.001708     2.412
   1.35041  0.30116 -0.05621 -0.85663  0.000628  0.000260  0.001668     2.416
   1.36029  0.31104 -0.05605 -0.86007  0.000647  0.000266  0.001610     2.427
   1.37019  0.32094 -0.05585 -0.86349  0.000662  0.000272  0.001575     2.430
   1.38011  0.33086 -0.05561 -0.86643  0.000679  0.000278  0.001529     2.437
   1.39006  0.34080 -0.05533 -0.86932  0.000694  0.000284  0.001497     2.440
   1.40002  0.35076 -0.05502 -0.87244  0.000705  0.000289  0.001484     2.436
   1.41001  0.36074 -0.05467 -0.87446  0.000725  0.000296  0.001424     2.451
   1.42001  0.37074 -0.05429 -0.87694  0.000738  0.000301  0.001405     2.449
   1.43002  0.38074 -0.05389 -0.87945  0.000750  0.000307  0.001391     2.447
   1.44006  0.39077 -0.05345 -0.88141  0.000767  0.000312  0.001354     2.454
   1.45010  0.40080 -0.05299 -0.88354  0.000780  0.000318  0.001335     2.454
   1.46015  0.41084 -0.05250 -0.88528  0.000795  0.000323  0.001304     2.459
   1.47023  0.42090 -0.05199 -0.88698  0.000810  0.000329  0.001278     2.463
   1.48031  0.43097 -0.05146 -0.88886  0.000822  0.000334  0.001266     2.460
   1.49041  0.44105 -0.05091 -0.89056  0.000834  0.000339  0.001247     2.461
   1.50051  0.45114 -0.05034 -0.89228  0.000846  0.000344  0.001233     2.460
   1.51062  0.46123 -0.04975 -0.89359  0.000862  0.000349  0.001205     2.467
   1.52075  0.47134 -0.04914 -0.89513  0.000874  0.000354  0.001191     2.466
   1.53088  0.48145 -0.04852 -0.89646  0.000887  0.000359  0.001172     2.469
   1.54101  0.49156 -0.04789 -0.89830  0.000894  0.000363  0.001175     2.460
   1.55114  0.50167 -0.04724 -0.89982  0.000905  0.000368  0.001164     2.460
   1.56127  0.51178 -0.04657 -0.90088  0.000921  0.000373  0.001136     2.467
   1.57141  0.52190 -0.04590 -0.90296  0.000924  0.000377  0.001153     2.453
   1.58155  0.53201 -0.04520 -0.90352  0.000945  0.000383  0.001107     2.470
   1.59167  0.54211 -0.04450 -0.90549  0.000947  0.000386  0.001124     2.456
   1.60181  0.55222 -0.04378 -0.90690  0.000957  0.000390  0.001114     2.455
   1.61194  0.56233 -0.04304 -0.90761  0.000976  0.000395  0.001080     2.468
   1.62208  0.57244 -0.04229 -0.90881  0.000986  0.000400  0.001071     2.467
   1.63222  0.58255 -0.04153 -0.90988  0.000997  0.000404  0.001058     2.469
   1.64236  0.59266 -0.04076 -0.91124  0.001005  0.000408  0.001058     2.464
   1.65251  0.60278 -0.03997 -0.91217  0.001018  0.000412  0.001041     2.468
   1.66266  0.61290 -0.03916 -0.91273  0.001034  0.000417  0.001014     2.478
   1.67281  0.62302 -0.03835 -0.91349  0.001047  0.000422  0.000999     2.481
   1.68298  0.63315 -0.03753 -0.91488  0.001051  0.000425  0.001007     2.471
   1.69314  0.64328 -0.03669 -0.91536  0.001067  0.000430  0.000982     2.481
   1.70331  0.65341 -0.03584 -0.91614  0.001079  0.000434  0.000971     2.483
   1.71347  0.66354 -0.03498 -0.91665  0.001093  0.000439  0.000953     2.489
   1.72364  0.67367 -0.03411 -0.91717  0.001106  0.000444  0.000937     2.493
   1.73381  0.68380 -0.03324 -0.91831  0.001110  0.000447  0.000944     2.484
   1.74398  0.69393 -0.03235 -0.91878  0.001124  0.000452  0.000927     2.490
   1.75416  0.70407 -0.03145 -0.91941  0.001135  0.000456  0.000918     2.491
   1.76433  0.71420 -0.03054 -0.91961  0.001152  0.000461  0.000895     2.501
   1.77450  0.72433 -0.02963 -0.92062  0.001156  0.000464  0.000902     2.491
   1.78467  0.73446 -0.02870 -0.92090  0.001171  0.000469  0.000884     2.499
   1.79486  0.74460 -0.02776 -0.92108  0.001187  0.000473  0.000864     2.507
   1.80503  0.75473 -0.02682 -0.92159  0.001197  0.000477  0.000858     2.506
   1.81520  0.76486 -0.02587 -0.92241  0.001201  0.000481  0.000863     2.499
   1.82538  0.77499 -0.02490 -0.92199  0.001226  0.000487  0.000826     2.520
   1.83556  0.78512 -0.02393 -0.92254  0.001233  0.000490  0.000826     2.515
   1.84573  0.79525 -0.02295 -0.92277  0.001246  0.000495  0.000814     2.519
   1.85591  0.80538 -0.02196 -0.92265  0.001264  0.000500  0.000793     2.530
   1.86608  0.81550 -0.02097 -0.92318  0.001270  0.000503  0.000795     2.524
   1.87625  0.82562 -0.01996 -0.92308  0.001287  0.000508  0.000776     2.533
   1.88642  0.83574 -0.01894 -0.92272  0.001308  0.000514  0.000752     2.547
   1.89658  0.84585 -0.01792 -0.92296  0.001317  0.000517  0.000749     2.545
   1.90675  0.85596 -0.01688 -0.92217  0.001345  0.000524  0.000715     2.568
   1.91690  0.86606 -0.01584 -0.92229  0.001354  0.000528  0.000712     2.565
   1.92705  0.87615 -0.01478 -0.92135  0.001384  0.000534  0.000677     2.590
   1.93718  0.88623 -0.01371 -0.92034  0.001414  0.000541  0.000643     2.614
   1.94730  0.89629 -0.01264 -0.91943  0.001441  0.000547  0.000617     2.633
   1.95739  0.90632 -0.01155 -0.91792  0.001481  0.000555  0.000574     2.669
   1.96743  0.91630 -0.01045 -0.91601  0.001531  0.000564  0.000523     2.716
   1.97740  0.92621 -0.00934 -0.91347  0.001601  0.000574  0.000455     2.788
   1.98727  0.93602 -0.00822 -0.91053  0.001689  0.000586  0.000378     2.883
   1.99699  0.94567 -0.00708 -0.90661  0.001837  0.000600  0.000263     3.059
   2.00652  0.95513 -0.00592 -0.90274  0.002049  0.000615  0.000136     3.332
   2.01578  0.96431 -0.00475 -0.89980  0.002350  0.000627  0.000016     3.750
   2.02465  0.97311 -0.00357 -0.89814  0.002774  0.000633 -0.000066     4.379
   2.03304  0.98142 -0.00244 -0.89723  0.003268  0.000637 -0.000089     5.126
   2.04075  0.98906 -0.00140 -0.89691  0.003792  0.000639 -0.000088     5.937
   2.05178  1.00000  0.00000 -0.89787  0.005115  0.000632 -0.000081     8.093
   2.05178  1.00010  0.00000  0.89787  0.022530  0.008620  0.000000     2.614
   2.05934  1.00765  0.00028  0.90104  0.019957  0.008484  0.000000     2.352
   2.06749  1.01580  0.00055  0.90271  0.018617  0.008417  0.000000     2.212
