#    s        x        y     Ue/Vinf    Dstar     Theta      Cf       H
   0.00000  1.00000  0.00000  0.84873  0.003914  0.002514  0.001538     1.556
   0.00408  0.99592  0.00019  0.85415  0.003790  0.002454  0.001598     1.545
   0.01077  0.98925  0.00065  0.86646  0.003528  0.002326  0.001743     1.517
   0.01818  0.98187  0.00132  0.87551  0.003352  0.002234  0.001846     1.500
   0.02634  0.97376  0.00217  0.88443  0.003189  0.002146  0.001949     1.486
   0.03516  0.96499  0.00316  0.89388  0.003026  0.002058  0.002060     1.471
   0.04451  0.95570  0.00422  0.90010  0.002923  0.001997  0.002126     1.464
   0.05416  0.94612  0.00534  0.90649  0.002820  0.001936  0.002197     1.457
   0.06396  0.93638  0.00648  0.90988  0.002765  0.001898  0.002224     1.456
   0.07383  0.92658  0.00766  0.91408  0.002698  0.001855  0.002263     1.455
   0.08374  0.91675  0.00886  0.91674  0.002654  0.001823  0.002280     1.456
   0.09366  0.90690  0.01010  0.91974  0.002606  0.001789  0.002302     1.457
   0.10360  0.89705  0.01138  0.92322  0.002553  0.001753  0.002330     1.457
   0.11355  0.88719  0.01270  0.92686  0.002498  0.001715  0.002361     1.456
   0.12352  0.87731  0.01405  0.93024  0.002447  0.001680  0.002388     1.456
   0.13349  0.86743  0.01543  0.93347  0.002400  0.001647  0.002413     1.457
   0.14349  0.85753  0.01685  0.93738  0.002344  0.001609  0.002447     1.457
   0.15351  0.84762  0.01830  0.94093  0.002294  0.001574  0.002477     1.457
   0.16353  0.83771  0.01978  0.94497  0.002239  0.001537  0.002514     1.457
   0.17357  0.82778  0.02129  0.94903  0.002185  0.001501  0.002551     1.456
   0.18362  0.81785  0.02282  0.95278  0.002135  0.001466  0.002584     1.456
   0.19369  0.80790  0.02438  0.95693  0.002082  0.001430  0.002623     1.456
   0.20377  0.79795  0.02596  0.96102  0.002031  0.001395  0.002662     1.456
   0.21385  0.78799  0.02756  0.96492  0.001982  0.001361  0.002697     1.456
   0.22396  0.77802  0.02919  0.96989  0.001923  0.001323  0.002751     1.454
   0.23407  0.76804  0.03083  0.97375  0.001876  0.001290  0.002787     1.455
   0.24420  0.75805  0.03249  0.97815  0.001825  0.001255  0.002832     1.454
   0.25434  0.74805  0.03417  0.98307  0.001771  0.001219  0.002887     1.453
   0.26449  0.73804  0.03586  0.98720  0.001724  0.001186  0.002929     1.453
   0.27465  0.72802  0.03757  0.99261  0.001667  0.001149  0.002994     1.451
   0.28483  0.71799  0.03928  0.99628  0.001625  0.001119  0.003029     1.452
   0.29502  0.70795  0.04101  1.00150  0.001572  0.001083  0.003093     1.451
   0.30521  0.69791  0.04275  1.00699  0.001517  0.001047  0.003164     1.449
   0.31542  0.68785  0.04449  1.01127  0.001473  0.001016  0.003214     1.449
   0.32564  0.67778  0.04624  1.01668  0.001421  0.000982  0.003286     1.447
   0.33587  0.66770  0.04799  1.02145  0.001374  0.000950  0.003349     1.446
   0.34609  0.65763  0.04974  1.02654  0.001326  0.000917  0.003419     1.445
   0.35632  0.64755  0.05149  1.03147  0.001279  0.000886  0.003489     1.444
   0.36654  0.63748  0.05324  1.03706  0.001229  0.000853  0.003575     1.441
   0.37675  0.62742  0.05498  1.04188  0.001185  0.000822  0.003648     1.440
   0.38695  0.61737  0.05672  1.04810  0.001133  0.000789  0.003755     1.437
   0.39714  0.60733  0.05844  1.05270  0.001090  0.000760  0.003832     1.436
   0.40730  0.59731  0.06015  1.05798  0.001045  0.000729  0.003927     1.433
   0.41745  0.58730  0.06185  1.06316  0.001001  0.000699  0.004024     1.431
   0.42760  0.57730  0.06354  1.06934  0.000952  0.000667  0.004148     1.427
   0.43772  0.56731  0.06521  1.07471  0.000908  0.000638  0.004260     1.424
   0.44784  0.55733  0.06686  1.07982  0.000866  0.000609  0.004371     1.422
   0.45793  0.54737  0.06849  1.08531  0.000823  0.000579  0.004493     1.420
   0.46801  0.53742  0.07010  1.09113  0.000779  0.000550  0.004624     1.418
   0.47808  0.52748  0.07168  1.09545  0.000742  0.000523  0.004712     1.420
   0.48813  0.51755  0.07324  1.10069  0.000704  0.000495  0.004802     1.423
   0.49817  0.50763  0.07478  1.10675  0.000666  0.000466  0.004877     1.431
   0.50818  0.49773  0.07628  1.11087  0.000639  0.000440  0.004824     1.452
   0.51818  0.48784  0.07775  1.11484  0.000621  0.000416  0.004606     1.494
   0.52815  0.47797  0.07919  1.11939  0.000620  0.000393  0.004103     1.579
   0.53811  0.46811  0.08059  1.12397  0.000657  0.000373  0.003087     1.764
   0.54806  0.45826  0.08195  1.13379  0.000768  0.000351  0.001572     2.187
   0.55796  0.44844  0.08327  1.15964  0.000961  0.000314  0.000338     3.063
   0.56787  0.43862  0.08455  1.17141  0.001065  0.000296  0.000077     3.592
   0.57773  0.42883  0.08578  1.17498  0.001093  0.000291  0.000024     3.752
   0.58759  0.41905  0.08697  1.17912  0.001073  0.000285  0.000022     3.761
   0.59741  0.40929  0.08810  1.18348  0.001047  0.000279  0.000026     3.747
   0.60721  0.39955  0.08918  1.18815  0.001003  0.000273  0.000053     3.675
   0.61698  0.38983  0.09020  1.19311  0.000955  0.000266  0.000091     3.585
   0.62674  0.38012  0.09116  1.19833  0.000908  0.000260  0.000135     3.497
   0.63645  0.37045  0.09206  1.20396  0.000855  0.000253  0.000201     3.385
   0.64614  0.36080  0.09290  1.21014  0.000796  0.000245  0.000300     3.248
   0.65578  0.35119  0.09366  1.21627  0.000747  0.000237  0.000392     3.147
   0.66535  0.34164  0.09434  1.22254  0.000702  0.000230  0.000498     3.051
   0.67486  0.33215  0.09494  1.22905  0.000655  0.000222  0.000632     2.948
   0.68431  0.32272  0.09545  1.23578  0.000607  0.000214  0.000803     2.837
   0.69369  0.31335  0.09585  1.24080  0.000577  0.000207  0.000912     2.783
   0.70300  0.30404  0.09615  1.24587  0.000545  0.000200  0.001053     2.718
   0.71226  0.29478  0.09635  1.25122  0.000508  0.000193  0.001259     2.632
   0.72148  0.28556  0.09642  1.25332  0.000490  0.000188  0.001346     2.607
   0.73066  0.27638  0.09638  1.25580  0.000466  0.000182  0.001490     2.563
   0.73981  0.26723  0.09622  1.25695  0.000447  0.000177  0.001615     2.529
   0.74897  0.25808  0.09594  1.25720  0.000429  0.000172  0.001745     2.496
   0.75812  0.24894  0.09553  1.25545  0.000417  0.000168  0.001812     2.486
   0.76728  0.23979  0.09500  1.25324  0.000405  0.000164  0.001882     2.475
   0.77645  0.23065  0.09435  1.24982  0.000397  0.000160  0.001900     2.482
   0.78562  0.22151  0.09359  1.24803  0.000380  0.000155  0.002044     2.452
   0.79478  0.21239  0.09270  1.24298  0.000375  0.000152  0.002037     2.466
   0.80393  0.20330  0.09170  1.23965  0.000361  0.000148  0.002147     2.448
   0.81303  0.19426  0.09058  1.23466  0.000351  0.000144  0.002206     2.445
   0.82212  0.18526  0.08934  1.22943  0.000340  0.000140  0.002284     2.438
   0.83116  0.17632  0.08798  1.22370  0.000328  0.000135  0.002386     2.425
   0.84018  0.16743  0.08649  1.21647  0.000319  0.000132  0.002443     2.424
   0.84913  0.15862  0.08488  1.20917  0.000307  0.000127  0.002553     2.412
   0.85804  0.14988  0.08314  1.20032  0.000297  0.000124  0.002630     2.407
   0.86691  0.14121  0.08127  1.19054  0.000288  0.000120  0.002701     2.405
   0.87572  0.13263  0.07927  1.18023  0.000277  0.000115  0.002812     2.396
   0.88446  0.12416  0.07714  1.16850  0.000265  0.000111  0.002936     2.384
   0.89313  0.11579  0.07487  1.15439  0.000258  0.000108  0.002954     2.395
   0.90170  0.10756  0.07248  1.14109  0.000244  0.000103  0.003157     2.370
   0.91017  0.09948  0.06995  1.12361  0.000237  0.000099  0.003155     2.385
   0.91851  0.09157  0.06730  1.10702  0.000224  0.000095  0.003358     2.363
   0.92668  0.08388  0.06453  1.08648  0.000214  0.000091  0.003461     2.359
   0.93469  0.07641  0.06164  1.06392  0.000205  0.000087  0.003545     2.359
   0.94247  0.06922  0.05866  1.03975  0.000194  0.000083  0.003713     2.346
   0.95001  0.06234  0.05559  1.01183  0.000183  0.000079  0.003856     2.335
   0.95725  0.05581  0.05246  0.98055  0.000174  0.000075  0.003933     2.334
   0.96416  0.04967  0.04930  0.94719  0.000165  0.000071  0.004034     2.329
   0.97069  0.04395  0.04614  0.91069  0.000155  0.000067  0.004196     2.313
   0.97681  0.03869  0.04301  0.86969  0.000146  0.000064  0.004263     2.306
   0.98248  0.03391  0.03996  0.82638  0.000139  0.000060  0.004262     2.306
   0.98770  0.02960  0.03702  0.78177  0.000131  0.000057  0.004302     2.300
   0.99248  0.02574  0.03420  0.73508  0.000124  0.000054  0.004269     2.301
   0.99682  0.02232  0.03152  0.68576  0.000116  0.000051  0.004399     2.271
   1.00077  0.01930  0.02898  0.63180  0.000111  0.000049  0.004182     2.278
   1.00435  0.01663  0.02659  0.57969  0.000106  0.000046  0.004007     2.284
   1.00761  0.01427  0.02434  0.52720  0.000099  0.000044  0.003900     2.279
   1.01059  0.01219  0.02221  0.46943  0.000093  0.000041  0.003849     2.242
   1.01331  0.01036  0.02020  0.40889  0.000091  0.000040  0.003324     2.273
   1.01579  0.00875  0.01831  0.35085  0.000084  0.000037  0.003125     2.254
   1.01809  0.00732  0.01651  0.28594  0.000081  0.000036  0.002721     2.232
   1.02022  0.00606  0.01480  0.22199  0.000078  0.000034  0.002101     2.275
   1.02219  0.00495  0.01317  0.15344  0.000070  0.000032  0.001700     2.218
   1.02401  0.00398  0.01163  0.07953  0.000072  0.000032  0.000847     2.235
   1.02571  0.00314  0.01015  0.00617  0.000063  0.000028  0.000076     2.230
   1.02731  0.00241  0.00873 -0.07556  0.000063  0.000028  0.000924     2.230
   1.02880  0.00180  0.00737 -0.15894  0.000059  0.000027  0.002094     2.216
   1.03022  0.00127  0.00605 -0.25128  0.000055  0.000025  0.003542     2.215
   1.03155  0.00084  0.00479 -0.34940  0.000052  0.000024  0.005217     2.212
   1.03282  0.00050  0.00357 -0.45441  0.000050  0.000022  0.007176     2.209
   1.03402  0.00025  0.00239 -0.55742  0.000049  0.000022  0.008734     2.228
   1.03517  0.00008  0.00126 -0.68964  0.000042  0.000020  0.013484     2.149
   1.03627  0.00000  0.00016 -0.84444  0.000040  0.000018  0.016912     2.196
   1.03736  0.00005 -0.00093 -0.99308  0.000039  0.000018  0.019503     2.227
   1.03847  0.00026 -0.00202 -1.16295  0.000037  0.000017  0.025135     2.191
   1.03963  0.00070 -0.00309 -1.21022  0.000055  0.000021  0.011965     2.585
   1.04084  0.00131 -0.00414 -1.21834  0.000063  0.000025  0.011344     2.506
   1.04212  0.00206 -0.00518 -1.22427  0.000074  0.000029  0.009399     2.541
   1.04347  0.00292 -0.00621 -1.23302  0.000080  0.000032  0.009093     2.499
   1.04490  0.00391 -0.00725 -1.23194  0.000093  0.000036  0.007097     2.587
   1.04643  0.00501 -0.00831 -1.23748  0.000098  0.000039  0.007356     2.515
   1.04806  0.00623 -0.00939 -1.24533  0.000104  0.000042  0.007197     2.488
   1.04981  0.00759 -0.01050 -1.25270  0.000111  0.000044  0.006796     2.487
   1.05172  0.00911 -0.01165 -1.26032  0.000117  0.000047  0.006488     2.482
   1.05377  0.01079 -0.01283 -1.26451  0.000127  0.000050  0.005834     2.511
   1.05602  0.01267 -0.01406 -1.27066  0.000133  0.000053  0.005683     2.495
   1.05847  0.01477 -0.01533 -1.26783  0.000150  0.000058  0.004549     2.589
   1.06117  0.01711 -0.01667 -1.27249  0.000153  0.000061  0.004810     2.521
   1.06414  0.01973 -0.01807 -1.27044  0.000169  0.000065  0.004065     2.584
   1.06744  0.02267 -0.01956 -1.27436  0.000173  0.000069  0.004224     2.528
   1.07110  0.02598 -0.02114 -1.27982  0.000180  0.000072  0.004213     2.500
   1.07520  0.02972 -0.02281 -1.28249  0.000193  0.000076  0.003846     2.523
   1.07976  0.03393 -0.02457 -1.28533  0.000204  0.000081  0.003626     2.527
   1.08485  0.03867 -0.02642 -1.28638  0.000218  0.000086  0.003311     2.548
   1.09052  0.04399 -0.02837 -1.29190  0.000225  0.000090  0.003392     2.504
   1.09676  0.04990 -0.03037 -1.29190  0.000244  0.000096  0.002956     2.553
   1.10353  0.05636 -0.03241 -1.29341  0.000257  0.000101  0.002824     2.548
   1.11081  0.06334 -0.03446 -1.29709  0.000267  0.000106  0.002813     2.522
   1.11849  0.07076 -0.03647 -1.29709  0.000286  0.000112  0.002528     2.556
   1.12654  0.07856 -0.03843 -1.29963  0.000296  0.000117  0.002501     2.535
   1.13483  0.08664 -0.04030 -1.30036  0.000312  0.000123  0.002339     2.549
   1.14336  0.09498 -0.04207 -1.29941  0.000331  0.000129  0.002140     2.575
   1.15204  0.10350 -0.04374 -1.30056  0.000342  0.000134  0.002119     2.557
   1.16085  0.11218 -0.04529 -1.29938  0.000360  0.000139  0.001955     2.582
   1.16978  0.12099 -0.04672 -1.29718  0.000380  0.000146  0.001794     2.609
   1.17880  0.12991 -0.04804 -1.29481  0.000398  0.000151  0.001675     2.627
   1.18789  0.13892 -0.04925 -1.29284  0.000413  0.000157  0.001602     2.631
   1.19704  0.14801 -0.05035 -1.29005  0.000431  0.000163  0.001497     2.650
   1.20626  0.15717 -0.05134 -1.28666  0.000452  0.000169  0.001386     2.674
   1.21553  0.16640 -0.05222 -1.28231  0.000475  0.000175  0.001254     2.711
   1.22485  0.17569 -0.05300 -1.27743  0.000501  0.000182  0.001127     2.751
   1.23424  0.18505 -0.05369 -1.27269  0.000524  0.000188  0.001034     2.780
   1.24368  0.19447 -0.05429 -1.26776  0.000547  0.000195  0.000946     2.811
   1.25317  0.20395 -0.05480 -1.26198  0.000578  0.000202  0.000829     2.865
   1.26272  0.21349 -0.05523 -1.25634  0.000607  0.000209  0.000738     2.909
   1.27232  0.22308 -0.05559 -1.25093  0.000634  0.000215  0.000669     2.943
   1.28197  0.23273 -0.05588 -1.24555  0.000661  0.000222  0.000606     2.977
   1.29165  0.24241 -0.05610 -1.24016  0.000689  0.000229  0.000545     3.016
   1.30138  0.25213 -0.05625 -1.23430  0.000727  0.000236  0.000459     3.083
   1.31113  0.26188 -0.05635 -1.22918  0.000754  0.000242  0.000419     3.112
   1.32091  0.27166 -0.05639 -1.22404  0.000784  0.000249  0.000375     3.150
   1.33072  0.28147 -0.05638 -1.21908  0.000813  0.000255  0.000336     3.185
   1.34055  0.29130 -0.05632 -1.21440  0.000839  0.000261  0.000309     3.209
   1.35041  0.30116 -0.05621 -1.20985  0.000865  0.000268  0.000284     3.234
   1.36029  0.31104 -0.05605 -1.20527  0.000897  0.000274  0.000251     3.274
   1.37019  0.32094 -0.05585 -1.20125  0.000915  0.000280  0.000247     3.271
   1.38011  0.33086 -0.05561 -1.19758  0.000926  0.000285  0.000254     3.250
   1.39006  0.34080 -0.05533 -1.19460  0.000924  0.000290  0.000287     3.190
   1.40002  0.35076 -0.05502 -1.19135  0.000875  0.000295  0.000446     2.965
   1.41001  0.36074 -0.05467 -1.17138  0.000740  0.000322  0.001418     2.297
   1.42001  0.37074 -0.05429 -1.15944  0.000635  0.000344  0.002903     1.848
   1.43002  0.38074 -0.05389 -1.15606  0.000585  0.000361  0.004136     1.623
   1.44006  0.39077 -0.05345 -1.15206  0.000581  0.000382  0.004788     1.520
   1.45010  0.40080 -0.05299 -1.14984  0.000592  0.000404  0.005121     1.467
   1.46015  0.41084 -0.05250 -1.14601  0.000618  0.000428  0.005206     1.443
   1.47023  0.42090 -0.05199 -1.14294  0.000646  0.000452  0.005207     1.430
   1.48031  0.43097 -0.05146 -1.13958  0.000679  0.000477  0.005147     1.424
   1.49041  0.44105 -0.05091 -1.13644  0.000713  0.000501  0.005066     1.421
   1.50051  0.45114 -0.05034 -1.13291  0.000748  0.000527  0.004965     1.421
   1.51062  0.46123 -0.04975 -1.12945  0.000784  0.000552  0.004863     1.422
   1.52075  0.47134 -0.04914 -1.12552  0.000822  0.000577  0.004752     1.424
   1.53088  0.48145 -0.04852 -1.12216  0.000858  0.000602  0.004659     1.425
   1.54101  0.49156 -0.04789 -1.11968  0.000892  0.000626  0.004588     1.425
   1.55114  0.50167 -0.04724 -1.11660  0.000927  0.000650  0.004506     1.426
   1.56127  0.51178 -0.04657 -1.11222  0.000968  0.000677  0.004401     1.429
   1.57141  0.52190 -0.04590 -1.11113  0.000995  0.000698  0.004372     1.427
   1.58155  0.53201 -0.04520 -1.10625  0.001039  0.000726  0.004262     1.431
   1.59167  0.54211 -0.04450 -1.10444  0.001069  0.000748  0.004224     1.429
   1.60181  0.55222 -0.04378 -1.10159  0.001103  0.000772  0.004164     1.429
   1.61194  0.56233 -0.04304 -1.09774  0.001143  0.000799  0.004086     1.431
   1.62208  0.57244 -0.04229 -1.09482  0.001178  0.000823  0.004032     1.431
   1.63222  0.58255 -0.04153 -1.09183  0.001214  0.000848  0.003978     1.431
   1.64236  0.59266 -0.04076 -1.08955  0.001246  0.000871  0.003940     1.430
   1.65251  0.60278 -0.03997 -1.08641  0.001283  0.000897  0.003885     1.431
   1.66266  0.61290 -0.03916 -1.08225  0.001325  0.000925  0.003813     1.433
   1.67281  0.62302 -0.03835 -1.07976  0.001359  0.000949  0.003776     1.432
   1.68298  0.63315 -0.03753 -1.07735  0.001392  0.000973  0.003742     1.431
   1.69314  0.64328 -0.03669 -1.07385  0.001432  0.001000  0.003687     1.432
   1.70331  0.65341 -0.03584 -1.07073  0.001469  0.001026  0.003641     1.432
   1.71347  0.66354 -0.03498 -1.06764  0.001507  0.001053  0.003597     1.432
   1.72364  0.67367 -0.03411 -1.06425  0.001547  0.001080  0.003548     1.432
   1.73381  0.68380 -0.03324 -1.06222  0.001579  0.001104  0.003526     1.430
   1.74398  0.69393 -0.03235 -1.05876  0.001620  0.001132  0.003477     1.431
   1.75416  0.70407 -0.03145 -1.05578  0.001658  0.001159  0.003438     1.431
   1.76433  0.71420 -0.03054 -1.05225  0.001701  0.001188  0.003390     1.432
   1.77450  0.72433 -0.02963 -1.05001  0.001734  0.001212  0.003367     1.431
   1.78467  0.73446 -0.02870 -1.04647  0.001777  0.001242  0.003320     1.431
   1.79486  0.74460 -0.02776 -1.04299  0.001821  0.001271  0.003275     1.432
   1.80503  0.75473 -0.02682 -1.04024  0.001859  0.001298  0.003244     1.432
   1.81520  0.76486 -0.02587 -1.03752  0.001897  0.001325  0.003214     1.431
   1.82538  0.77499 -0.02490 -1.03335  0.001948  0.001359  0.003159     1.433
   1.83556  0.78512 -0.02393 -1.03047  0.001988  0.001387  0.003128     1.433
   1.84573  0.79525 -0.02295 -1.02715  0.002032  0.001418  0.003090     1.433
   1.85591  0.80538 -0.02196 -1.02337  0.002081  0.001451  0.003044     1.435
   1.86608  0.81550 -0.02097 -1.02060  0.002121  0.001479  0.003016     1.434
   1.87625  0.82562 -0.01996 -1.01675  0.002172  0.001513  0.002971     1.436
   1.88642  0.83574 -0.01894 -1.01266  0.002226  0.001549  0.002923     1.437
   1.89658  0.84585 -0.01792 -1.00946  0.002272  0.001580  0.002890     1.438
   1.90675  0.85596 -0.01688 -1.00484  0.002333  0.001620  0.002835     1.440
   1.91690  0.86606 -0.01584 -1.00143  0.002382  0.001653  0.002800     1.441
   1.92705  0.87615 -0.01478 -0.99661  0.002448  0.001695  0.002743     1.444
   1.93718  0.88623 -0.01371 -0.99171  0.002515  0.001738  0.002687     1.447
   1.94730  0.89629 -0.01264 -0.98746  0.002576  0.001778  0.002642     1.449
   1.95739  0.90632 -0.01155 -0.98209  0.002652  0.001825  0.002581     1.453
   1.96743  0.91630 -0.01045 -0.97618  0.002737  0.001877  0.002513     1.458
   1.97740  0.92621 -0.00934 -0.97012  0.002827  0.001931  0.002444     1.464
   1.98727  0.93602 -0.00822 -0.96329  0.002930  0.001992  0.002365     1.471
   1.99699  0.94567 -0.00708 -0.95481  0.003062  0.002066  0.002264     1.482
   2.00652  0.95513 -0.00592 -0.94443  0.003232  0.002159  0.002138     1.497
   2.01578  0.96431 -0.00475 -0.93227  0.003446  0.002270  0.001989     1.518
   2.02465  0.97311 -0.00357 -0.91660  0.003752  0.002420  0.001795     1.550
   2.03304  0.98142 -0.00244 -0.89982  0.004126  0.002594  0.001591     1.591
   2.04075  0.98906 -0.00140 -0.88246  0.004578  0.002791  0.001383     1.641
   2.05178  1.00000  0.00000 -0.84873  0.005750  0.003234  0.000978     1.778
   2.05178  1.00010  0.00000  0.84873  0.009663  0.005748  0.000000     1.681
   2.05934  1.00765  0.00024  0.87565  0.008025  0.005134  0.000000     1.563
   2.06749  1.01581  0.00038  0.88962  0.007319  0.004854  0.000000     1.508
