#    s        x        y     Ue/Vinf    Dstar     Theta      Cf       H
   0.00000  1.00000  0.00000  0.85157  0.008252  0.004628  0.000888     1.783
   0.00408  0.99592  0.00019  0.85756  0.007917  0.004505  0.000947     1.758
   0.01077  0.98925  0.00065  0.86872  0.007346  0.004288  0.001061     1.713
   0.01818  0.98187  0.00132  0.87782  0.006940  0.004121  0.001148     1.684
   0.02634  0.97376  0.00217  0.88738  0.006552  0.003954  0.001240     1.657
   0.03516  0.96499  0.00316  0.89747  0.006179  0.003788  0.001338     1.631
   0.04451  0.95570  0.00422  0.90608  0.005892  0.003651  0.001416     1.614
   0.05416  0.94612  0.00534  0.91457  0.005629  0.003522  0.001493     1.598
   0.06396  0.93638  0.00648  0.92128  0.005439  0.003422  0.001547     1.589
   0.07383  0.92658  0.00766  0.92809  0.005254  0.003324  0.001603     1.581
   0.08374  0.91675  0.00886  0.93377  0.005111  0.003243  0.001643     1.576
   0.09366  0.90690  0.01010  0.93960  0.004969  0.003163  0.001686     1.571
   0.10360  0.89705  0.01138  0.94543  0.004832  0.003084  0.001729     1.567
   0.11355  0.88719  0.01270  0.95156  0.004691  0.003004  0.001777     1.561
   0.12352  0.87731  0.01405  0.95733  0.004565  0.002931  0.001819     1.558
   0.13349  0.86743  0.01543  0.96297  0.004447  0.002860  0.001859     1.555
   0.14349  0.85753  0.01685  0.96903  0.004322  0.002787  0.001906     1.551
   0.15351  0.84762  0.01830  0.97490  0.004206  0.002718  0.001949     1.547
   0.16353  0.83771  0.01978  0.98104  0.004088  0.002648  0.001997     1.544
   0.17357  0.82778  0.02129  0.98729  0.003972  0.002579  0.002046     1.540
   0.18362  0.81785  0.02282  0.99331  0.003864  0.002514  0.002092     1.537
   0.19369  0.80790  0.02438  0.99963  0.003754  0.002447  0.002142     1.534
   0.20377  0.79795  0.02596  1.00600  0.003647  0.002382  0.002193     1.531
   0.21385  0.78799  0.02756  1.01215  0.003547  0.002321  0.002240     1.528
   0.22396  0.77802  0.02919  1.01907  0.003438  0.002255  0.002300     1.525
   0.23407  0.76804  0.03083  1.02538  0.003342  0.002195  0.002350     1.522
   0.24420  0.75805  0.03249  1.03200  0.003244  0.002135  0.002405     1.520
   0.25434  0.74805  0.03417  1.03911  0.003142  0.002073  0.002468     1.516
   0.26449  0.73804  0.03586  1.04566  0.003053  0.002016  0.002522     1.514
   0.27465  0.72802  0.03757  1.05319  0.002951  0.001954  0.002592     1.510
   0.28483  0.71799  0.03928  1.05957  0.002870  0.001901  0.002643     1.509
   0.29502  0.70795  0.04101  1.06701  0.002776  0.001843  0.002712     1.506
   0.30521  0.69791  0.04275  1.07474  0.002683  0.001785  0.002786     1.503
   0.31542  0.68785  0.04449  1.08188  0.002600  0.001732  0.002851     1.501
   0.32564  0.67778  0.04624  1.08954  0.002513  0.001678  0.002925     1.498
   0.33587  0.66770  0.04799  1.09698  0.002432  0.001626  0.002996     1.496
   0.34609  0.65763  0.04974  1.10466  0.002351  0.001574  0.003071     1.494
   0.35632  0.64755  0.05149  1.11241  0.002272  0.001523  0.003148     1.491
   0.36654  0.63748  0.05324  1.12065  0.002191  0.001472  0.003234     1.488
   0.37675  0.62742  0.05498  1.12832  0.002117  0.001424  0.003311     1.487
   0.38695  0.61737  0.05672  1.13725  0.002035  0.001372  0.003412     1.483
   0.39714  0.60733  0.05844  1.14498  0.001966  0.001327  0.003492     1.482
   0.40730  0.59731  0.06015  1.15327  0.001895  0.001281  0.003584     1.480
   0.41745  0.58730  0.06185  1.16157  0.001826  0.001236  0.003677     1.478
   0.42760  0.57730  0.06354  1.17086  0.001751  0.001188  0.003792     1.474
   0.43772  0.56731  0.06521  1.17949  0.001684  0.001144  0.003895     1.472
   0.44784  0.55733  0.06686  1.18815  0.001619  0.001102  0.004001     1.470
   0.45793  0.54737  0.06849  1.19720  0.001553  0.001059  0.004117     1.467
   0.46801  0.53742  0.07010  1.20663  0.001488  0.001016  0.004244     1.464
   0.47808  0.52748  0.07168  1.21525  0.001428  0.000977  0.004356     1.462
   0.48813  0.51755  0.07324  1.22440  0.001368  0.000937  0.004483     1.460
   0.49817  0.50763  0.07478  1.23492  0.001302  0.000895  0.004644     1.455
   0.50818  0.49773  0.07628  1.24402  0.001246  0.000857  0.004779     1.453
   0.51818  0.48784  0.07775  1.25363  0.001189  0.000819  0.004930     1.450
   0.52815  0.47797  0.07919  1.26403  0.001130  0.000781  0.005104     1.446
   0.53811  0.46811  0.08059  1.27398  0.001074  0.000744  0.005275     1.443
   0.54806  0.45826  0.08195  1.28380  0.001021  0.000709  0.005449     1.440
   0.55796  0.44844  0.08327  1.29415  0.000967  0.000673  0.005643     1.436
   0.56787  0.43862  0.08455  1.30483  0.000914  0.000638  0.005853     1.432
   0.57773  0.42883  0.08578  1.31448  0.000865  0.000605  0.006043     1.430
   0.58759  0.41905  0.08697  1.32665  0.000811  0.000569  0.006305     1.425
   0.59741  0.40929  0.08810  1.33640  0.000765  0.000537  0.006505     1.424
   0.60721  0.39955  0.08918  1.34768  0.000718  0.000504  0.006741     1.423
   0.61698  0.38983  0.09020  1.35833  0.000674  0.000473  0.006939     1.425
   0.62674  0.38012  0.09116  1.36846  0.000635  0.000443  0.007068     1.433
   0.63645  0.37045  0.09206  1.37923  0.000600  0.000413  0.007106     1.451
   0.64614  0.36080  0.09290  1.39103  0.000570  0.000384  0.006950     1.486
   0.65578  0.35119  0.09366  1.40099  0.000561  0.000358  0.006282     1.567
   0.66535  0.34164  0.09434  1.41166  0.000586  0.000335  0.004798     1.748
   0.67486  0.33215  0.09494  1.43048  0.000674  0.000310  0.002451     2.176
   0.68431  0.32272  0.09545  1.47158  0.000842  0.000269  0.000438     3.128
   0.69369  0.31335  0.09585  1.48821  0.000911  0.000253  0.000110     3.603
   0.70300  0.30404  0.09615  1.49340  0.000891  0.000248  0.000116     3.597
   0.71226  0.29478  0.09635  1.49971  0.000828  0.000242  0.000232     3.425
   0.72148  0.28556  0.09642  1.50592  0.000784  0.000236  0.000320     3.326
   0.73066  0.27638  0.09638  1.51297  0.000730  0.000229  0.000468     3.184
   0.73981  0.26723  0.09622  1.51988  0.000686  0.000223  0.000606     3.078
   0.74897  0.25808  0.09594  1.52679  0.000646  0.000217  0.000754     2.984
   0.75812  0.24894  0.09553  1.53251  0.000621  0.000211  0.000841     2.941
   0.76728  0.23979  0.09500  1.53808  0.000597  0.000206  0.000925     2.905
   0.77645  0.23065  0.09435  1.54302  0.000580  0.000201  0.000974     2.892
   0.78562  0.22151  0.09359  1.54938  0.000551  0.000195  0.001118     2.832
   0.79478  0.21239  0.09270  1.55338  0.000540  0.000190  0.001129     2.842
   0.80393  0.20330  0.09170  1.55920  0.000517  0.000184  0.001250     2.802
   0.81303  0.19426  0.09058  1.56412  0.000499  0.000179  0.001332     2.783
   0.82212  0.18526  0.08934  1.56909  0.000481  0.000174  0.001427     2.761
   0.83116  0.17632  0.08798  1.57427  0.000461  0.000169  0.001554     2.731
   0.84018  0.16743  0.08649  1.57843  0.000445  0.000164  0.001635     2.719
   0.84913  0.15862  0.08488  1.58297  0.000428  0.000159  0.001755     2.697
   0.85804  0.14988  0.08314  1.58682  0.000412  0.000154  0.001849     2.686
   0.86691  0.14121  0.08127  1.59068  0.000397  0.000148  0.001960     2.672
   0.87572  0.13263  0.07927  1.59437  0.000381  0.000143  0.002079     2.658
   0.88446  0.12416  0.07714  1.59805  0.000365  0.000138  0.002228     2.639
   0.89313  0.11579  0.07487  1.60025  0.000353  0.000133  0.002285     2.646
   0.90170  0.10756  0.07248  1.60448  0.000334  0.000128  0.002526     2.610
   0.91017  0.09948  0.06995  1.60569  0.000323  0.000123  0.002577     2.622
   0.91851  0.09157  0.06730  1.60906  0.000305  0.000118  0.002830     2.592
   0.92668  0.08388  0.06453  1.61041  0.000291  0.000113  0.003007     2.582
   0.93469  0.07641  0.06164  1.61098  0.000278  0.000108  0.003160     2.579
   0.94247  0.06922  0.05866  1.61248  0.000260  0.000102  0.003505     2.545
   0.95001  0.06234  0.05559  1.61093  0.000247  0.000097  0.003726     2.536
   0.95725  0.05581  0.05246  1.60861  0.000234  0.000093  0.003974     2.525
   0.96416  0.04967  0.04930  1.60509  0.000222  0.000088  0.004197     2.521
   0.97069  0.04395  0.04614  1.60204  0.000206  0.000083  0.004689     2.483
   0.97681  0.03869  0.04301  1.59422  0.000197  0.000079  0.004892     2.484
   0.98248  0.03391  0.03996  1.58614  0.000188  0.000075  0.005053     2.493
   0.98770  0.02960  0.03702  1.57938  0.000176  0.000071  0.005451     2.476
   0.99248  0.02574  0.03420  1.57080  0.000166  0.000067  0.005880     2.457
   0.99682  0.02232  0.03152  1.56036  0.000155  0.000064  0.006394     2.432
   1.00077  0.01930  0.02898  1.54568  0.000151  0.000061  0.006323     2.461
   1.00435  0.01663  0.02659  1.53501  0.000144  0.000058  0.006578     2.464
   1.00761  0.01427  0.02434  1.52558  0.000133  0.000055  0.007364     2.422
   1.01059  0.01219  0.02221  1.51042  0.000127  0.000052  0.007738     2.413
   1.01331  0.01036  0.02020  1.49345  0.000123  0.000050  0.007643     2.442
   1.01579  0.00875  0.01831  1.48088  0.000116  0.000048  0.008253     2.420
   1.01809  0.00732  0.01651  1.46519  0.000109  0.000045  0.008778     2.404
   1.02022  0.00606  0.01480  1.44660  0.000106  0.000044  0.008739     2.428
   1.02219  0.00495  0.01317  1.43064  0.000102  0.000042  0.008584     2.466
   1.02401  0.00398  0.01163  1.42064  0.000090  0.000038  0.010784     2.355
   1.02571  0.00314  0.01015  1.39278  0.000091  0.000037  0.009785     2.431
   1.02731  0.00241  0.00873  1.37634  0.000080  0.000035  0.012174     2.321
   1.02880  0.00180  0.00737  1.34132  0.000082  0.000034  0.010469     2.425
   1.03022  0.00127  0.00605  1.32174  0.000075  0.000031  0.011860     2.377
   1.03155  0.00084  0.00479  1.29268  0.000069  0.000030  0.012884     2.346
   1.03282  0.00050  0.00357  1.25580  0.000066  0.000028  0.013384     2.335
   1.03402  0.00025  0.00239  1.21715  0.000064  0.000027  0.012310     2.407
   1.03517  0.00008  0.00126  1.19247  0.000061  0.000024  0.011392     2.509
   1.03627  0.00000  0.00016  1.16838  0.000049  0.000021  0.016958     2.325
   1.03736  0.00005 -0.00093  1.10649  0.000046  0.000019  0.015502     2.426
   1.03847  0.00026 -0.00202  1.00698  0.000035  0.000016  0.023004     2.176
   1.03963  0.00070 -0.00309  0.81245  0.000039  0.000018  0.016353     2.200
   1.04084  0.00131 -0.00414  0.64468  0.000042  0.000019  0.012376     2.173
   1.04212  0.00206 -0.00518  0.49740  0.000048  0.000022  0.008139     2.211
   1.04347  0.00292 -0.00621  0.37570  0.000051  0.000023  0.005890     2.186
   1.04490  0.00391 -0.00725  0.26498  0.000058  0.000027  0.003601     2.193
   1.04643  0.00501 -0.00831  0.17804  0.000063  0.000028  0.002121     2.251
   1.04806  0.00623 -0.00939  0.09410  0.000061  0.000028  0.001192     2.217
   1.04981  0.00759 -0.01050  0.01344  0.000076  0.000034  0.000136     2.230
   1.05172  0.00911 -0.01165 -0.05309  0.000076  0.000034  0.000536     2.230
   1.05377  0.01079 -0.01283 -0.12207  0.000078  0.000035  0.001193     2.235
   1.05602  0.01267 -0.01406 -0.18319  0.000088  0.000039  0.001544     2.269
   1.05847  0.01477 -0.01533 -0.23991  0.000093  0.000041  0.001978     2.238
   1.06117  0.01711 -0.01667 -0.29431  0.000100  0.000044  0.002197     2.267
   1.06414  0.01973 -0.01807 -0.34460  0.000106  0.000047  0.002411     2.265
   1.06744  0.02267 -0.01956 -0.39311  0.000113  0.000050  0.002568     2.271
   1.07110  0.02598 -0.02114 -0.44346  0.000117  0.000052  0.002836     2.256
   1.07520  0.02972 -0.02281 -0.48832  0.000129  0.000056  0.002722     2.303
   1.07976  0.03393 -0.02457 -0.53148  0.000136  0.000060  0.002868     2.282
   1.08485  0.03867 -0.02642 -0.57232  0.000147  0.000064  0.002806     2.303
   1.09052  0.04399 -0.02837 -0.61572  0.000151  0.000067  0.003003     2.275
   1.09676  0.04990 -0.03037 -0.65102  0.000168  0.000072  0.002690     2.338
   1.10353  0.05636 -0.03241 -0.68656  0.000175  0.000076  0.002835     2.300
   1.11081  0.06334 -0.03446 -0.72111  0.000185  0.000080  0.002785     2.310
   1.11849  0.07076 -0.03647 -0.75022  0.000199  0.000085  0.002633     2.335
   1.12654  0.07856 -0.03843 -0.77832  0.000208  0.000089  0.002646     2.323
   1.13483  0.08664 -0.04030 -0.80324  0.000220  0.000094  0.002548     2.336
   1.14336  0.09498 -0.04207 -0.82489  0.000233  0.000099  0.002447     2.348
   1.15204  0.10350 -0.04374 -0.84597  0.000241  0.000103  0.002442     2.338
   1.16085  0.11218 -0.04529 -0.86328  0.000255  0.000108  0.002304     2.360
   1.16978  0.12099 -0.04672 -0.87920  0.000266  0.000113  0.002247     2.362
   1.17880  0.12991 -0.04804 -0.89299  0.000279  0.000118  0.002156     2.372
   1.18789  0.13892 -0.04925 -0.90537  0.000291  0.000122  0.002085     2.378
   1.19704  0.14801 -0.05035 -0.91696  0.000301  0.000127  0.002036     2.379
   1.20626  0.15717 -0.05134 -0.92677  0.000314  0.000131  0.001949     2.391
   1.21553  0.16640 -0.05222 -0.93472  0.000329  0.000137  0.001847     2.408
   1.22485  0.17569 -0.05300 -0.94157  0.000343  0.000142  0.001764     2.420
   1.23424  0.18505 -0.05369 -0.94810  0.000355  0.000146  0.001714     2.422
   1.24368  0.19447 -0.05429 -0.95360  0.000368  0.000151  0.001645     2.432
   1.25317  0.20395 -0.05480 -0.95761  0.000384  0.000157  0.001551     2.451
   1.26272  0.21349 -0.05523 -0.96119  0.000399  0.000162  0.001485     2.461
   1.27232  0.22308 -0.05559 -0.96502  0.000410  0.000167  0.001454     2.459
   1.28197  0.23273 -0.05588 -0.96763  0.000425  0.000172  0.001383     2.473
   1.29165  0.24241 -0.05610 -0.97080  0.000436  0.000177  0.001361     2.469
   1.30138  0.25213 -0.05625 -0.97189  0.000456  0.000182  0.001265     2.498
   1.31113  0.26188 -0.05635 -0.97420  0.000466  0.000187  0.001250     2.491
   1.32091  0.27166 -0.05639 -0.97540  0.000481  0.000192  0.001194     2.504
   1.33072  0.28147 -0.05638 -0.97696  0.000493  0.000197  0.001167     2.504
   1.34055  0.29130 -0.05632 -0.97835  0.000505  0.000201  0.001139     2.506
   1.35041  0.30116 -0.05621 -0.97931  0.000519  0.000206  0.001101     2.513
   1.36029  0.31104 -0.05605 -0.97974  0.000534  0.000211  0.001054     2.527
   1.37019  0.32094 -0.05585 -0.98024  0.000548  0.000216  0.001021     2.533
   1.38011  0.33086 -0.05561 -0.98052  0.000562  0.000221  0.000987     2.541
   1.39006  0.34080 -0.05533 -0.98051  0.000577  0.000226  0.000950     2.551
   1.40002  0.35076 -0.05502 -0.98130  0.000585  0.000230  0.000948     2.542
   1.41001  0.36074 -0.05467 -0.98081  0.000603  0.000236  0.000899     2.561
   1.42001  0.37074 -0.05429 -0.98077  0.000616  0.000240  0.000877     2.565
   1.43002  0.38074 -0.05389 -0.98121  0.000625  0.000244  0.000873     2.557
   1.44006  0.39077 -0.05345 -0.98079  0.000641  0.000249  0.000839     2.570
   1.45010  0.40080 -0.05299 -0.98074  0.000652  0.000254  0.000822     2.571
   1.46015  0.41084 -0.05250 -0.98022  0.000668  0.000259  0.000793     2.582
   1.47023  0.42090 -0.05199 -0.98006  0.000679  0.000263  0.000780     2.583
   1.48031  0.43097 -0.05146 -0.97999  0.000689  0.000267  0.000770     2.581
   1.49041  0.44105 -0.05091 -0.97971  0.000701  0.000271  0.000753     2.584
   1.50051  0.45114 -0.05034 -0.97952  0.000712  0.000276  0.000741     2.585
   1.51062  0.46123 -0.04975 -0.97929  0.000723  0.000280  0.000728     2.586
   1.52075  0.47134 -0.04914 -0.97870  0.000738  0.000284  0.000705     2.596
   1.53088  0.48145 -0.04852 -0.97849  0.000748  0.000288  0.000697     2.595
   1.54101  0.49156 -0.04789 -0.97868  0.000754  0.000292  0.000700     2.584
   1.55114  0.50167 -0.04724 -0.97852  0.000764  0.000296  0.000690     2.585
   1.56127  0.51178 -0.04657 -0.97797  0.000778  0.000300  0.000670     2.594
   1.57141  0.52190 -0.04590 -0.97861  0.000779  0.000303  0.000685     2.574
   1.58155  0.53201 -0.04520 -0.97760  0.000799  0.000308  0.000650     2.597
   1.59167  0.54211 -0.04450 -0.97808  0.000801  0.000310  0.000662     2.580
   1.60181  0.55222 -0.04378 -0.97801  0.000810  0.000314  0.000654     2.580
   1.61194  0.56233 -0.04304 -0.97729  0.000826  0.000318  0.000630     2.595
   1.62208  0.57244 -0.04229 -0.97703  0.000836  0.000322  0.000621     2.596
   1.63222  0.58255 -0.04153 -0.97677  0.000846  0.000326  0.000613     2.597
   1.64236  0.59266 -0.04076 -0.97679  0.000853  0.000329  0.000612     2.592
   1.65251  0.60278 -0.03997 -0.97633  0.000865  0.000333  0.000598     2.599
   1.66266  0.61290 -0.03916 -0.97549  0.000882  0.000337  0.000576     2.615
   1.67281  0.62302 -0.03835 -0.97506  0.000893  0.000341  0.000567     2.617
   1.68298  0.63315 -0.03753 -0.97507  0.000898  0.000344  0.000569     2.609
   1.69314  0.64328 -0.03669 -0.97431  0.000913  0.000348  0.000551     2.621
   1.70331  0.65341 -0.03584 -0.97374  0.000926  0.000352  0.000540     2.627
   1.71347  0.66354 -0.03498 -0.97307  0.000939  0.000356  0.000527     2.635
   1.72364  0.67367 -0.03411 -0.97232  0.000953  0.000360  0.000513     2.644
   1.73381  0.68380 -0.03324 -0.97230  0.000956  0.000363  0.000519     2.632
   1.74398  0.69393 -0.03235 -0.97147  0.000972  0.000367  0.000502     2.645
   1.75416  0.70407 -0.03145 -0.97090  0.000983  0.000371  0.000495     2.648
   1.76433  0.71420 -0.03054 -0.96991  0.001000  0.000375  0.000476     2.664
   1.77450  0.72433 -0.02963 -0.96974  0.001004  0.000378  0.000480     2.654
   1.78467  0.73446 -0.02870 -0.96877  0.001021  0.000383  0.000464     2.668
   1.79486  0.74460 -0.02776 -0.96782  0.001037  0.000387  0.000449     2.681
   1.80503  0.75473 -0.02682 -0.96716  0.001048  0.000391  0.000443     2.684
   1.81520  0.76486 -0.02587 -0.96672  0.001055  0.000394  0.000442     2.680
   1.82538  0.77499 -0.02490 -0.96524  0.001081  0.000399  0.000415     2.709
   1.83556  0.78512 -0.02393 -0.96456  0.001091  0.000403  0.000411     2.710
   1.84573  0.79525 -0.02295 -0.96361  0.001106  0.000407  0.000400     2.720
   1.85591  0.80538 -0.02196 -0.96236  0.001127  0.000411  0.000382     2.739
   1.86608  0.81550 -0.02097 -0.96167  0.001136  0.000415  0.000380     2.738
   1.87625  0.82562 -0.01996 -0.96040  0.001157  0.000420  0.000363     2.758
   1.88642  0.83574 -0.01894 -0.95890  0.001183  0.000425  0.000342     2.785
   1.89658  0.84585 -0.01792 -0.95789  0.001197  0.000429  0.000335     2.792
   1.90675  0.85596 -0.01688 -0.95604  0.001231  0.000434  0.000307     2.834
   1.91690  0.86606 -0.01584 -0.95486  0.001248  0.000439  0.000298     2.845
   1.92705  0.87615 -0.01478 -0.95286  0.001288  0.000445  0.000268     2.895
   1.93718  0.88623 -0.01371 -0.95080  0.001330  0.000451  0.000239     2.950
   1.94730  0.89629 -0.01264 -0.94889  0.001369  0.000457  0.000215     2.997
   1.95739  0.90632 -0.01155 -0.94656  0.001427  0.000464  0.000180     3.079
   1.96743  0.91630 -0.01045 -0.94411  0.001499  0.000471  0.000141     3.184
   1.97740  0.92621 -0.00934 -0.94162  0.001590  0.000478  0.000098     3.327
   1.98727  0.93602 -0.00822 -0.93929  0.001701  0.000485  0.000054     3.509
   1.99699  0.94567 -0.00708 -0.93721  0.001863  0.000491  0.000005     3.794
   2.00652  0.95513 -0.00592 -0.93568  0.002068  0.000496 -0.000033     4.170
   2.01578  0.96431 -0.00475 -0.93451  0.002310  0.000500 -0.000055     4.624
   2.02465  0.97311 -0.00357 -0.93375  0.002605  0.000502 -0.000062     5.187
   2.03304  0.98142 -0.00244 -0.93326  0.002868  0.000504 -0.000062     5.693
   2.04075  0.98906 -0.00140 -0.90043  0.003043  0.000651 -0.000042     4.676
   2.05178  1.00000  0.00000 -0.85157  0.003878  0.000931 -0.000016     4.167
   2.05178  1.00010  0.00000  0.85157  0.012130  0.005558  0.000000     2.182
   2.05934  1.00765  0.00027  0.86962  0.009730  0.005107  0.000000     1.905
   2.06749  1.01581  0.00049  0.88066  0.008638  0.004865  0.000000     1.775
