#    s        x        y     Ue/Vinf    Dstar     Theta      Cf       H
   0.00000  1.00000  0.00000  0.95457  0.003536  0.002552  0.003779     1.386
   0.00377  0.99624 -0.00023  0.95163  0.003575  0.002571  0.003719     1.391
   0.01072  0.98929 -0.00051  0.93466  0.003864  0.002719  0.003369     1.421
   0.01845  0.98156 -0.00063  0.92554  0.004031  0.002797  0.003175     1.442
   0.02661  0.97340 -0.00056  0.92127  0.004110  0.002827  0.003074     1.454
   0.03500  0.96502 -0.00034  0.91952  0.004139  0.002830  0.003020     1.462
   0.04347  0.95655  0.00000  0.91988  0.004124  0.002811  0.003006     1.467
   0.05203  0.94800  0.00043  0.92071  0.004099  0.002787  0.002999     1.471
   0.06063  0.93942  0.00095  0.92227  0.004059  0.002756  0.003006     1.473
   0.06925  0.93082  0.00154  0.92426  0.004012  0.002720  0.003020     1.475
   0.07789  0.92221  0.00220  0.92653  0.003959  0.002682  0.003039     1.476
   0.08653  0.91359  0.00291  0.92901  0.003903  0.002642  0.003061     1.477
   0.09519  0.90497  0.00369  0.93251  0.003828  0.002592  0.003103     1.477
   0.10387  0.89633  0.00453  0.93563  0.003761  0.002547  0.003136     1.477
   0.11256  0.88769  0.00542  0.93963  0.003679  0.002494  0.003188     1.475
   0.12126  0.87904  0.00635  0.94346  0.003603  0.002443  0.003235     1.475
   0.12996  0.87039  0.00733  0.94744  0.003525  0.002392  0.003284     1.474
   0.13869  0.86172  0.00836  0.95232  0.003433  0.002334  0.003353     1.471
   0.14742  0.85306  0.00942  0.95678  0.003351  0.002280  0.003412     1.470
   0.15616  0.84438  0.01051  0.96115  0.003273  0.002228  0.003468     1.469
   0.16492  0.83570  0.01163  0.96638  0.003183  0.002171  0.003543     1.467
   0.17367  0.82702  0.01278  0.97058  0.003112  0.002122  0.003593     1.467
   0.18244  0.81833  0.01397  0.97633  0.003020  0.002062  0.003677     1.464
   0.19123  0.80963  0.01516  0.98084  0.002949  0.002013  0.003730     1.465
   0.20000  0.80094  0.01639  0.98632  0.002866  0.001957  0.003804     1.464
   0.20879  0.79224  0.01762  0.99107  0.002796  0.001908  0.003858     1.466
   0.21759  0.78353  0.01887  0.99601  0.002727  0.001858  0.003912     1.467
   0.22639  0.77482  0.02015  1.00170  0.002650  0.001805  0.003979     1.469
   0.23520  0.76611  0.02143  1.00679  0.002585  0.001756  0.004025     1.472
   0.24400  0.75740  0.02273  1.01198  0.002522  0.001707  0.004065     1.477
   0.25283  0.74867  0.02403  1.01711  0.002463  0.001660  0.004093     1.483
   0.26165  0.73995  0.02534  1.02278  0.002402  0.001611  0.004122     1.491
   0.27047  0.73122  0.02666  1.02765  0.002355  0.001568  0.004112     1.502
   0.27931  0.72248  0.02798  1.03297  0.002309  0.001523  0.004091     1.516
   0.28815  0.71374  0.02930  1.03825  0.002270  0.001479  0.004041     1.535
   0.29698  0.70501  0.03063  1.04360  0.002238  0.001436  0.003956     1.559
   0.30581  0.69628  0.03194  1.04857  0.002222  0.001396  0.003812     1.591
   0.31463  0.68756  0.03324  1.05309  0.002226  0.001360  0.003594     1.637
   0.32344  0.67884  0.03455  1.05860  0.002239  0.001321  0.003325     1.695
   0.33224  0.67014  0.03583  1.06358  0.002288  0.001286  0.002941     1.780
   0.34104  0.66143  0.03710  1.06960  0.002369  0.001248  0.002463     1.898
   0.34982  0.65274  0.03836  1.07704  0.002498  0.001206  0.001890     2.072
   0.35861  0.64404  0.03959  1.08759  0.002681  0.001152  0.001271     2.328
   0.36739  0.63534  0.04081  1.10285  0.002913  0.001078  0.000751     2.702
   0.37617  0.62665  0.04200  1.12319  0.003167  0.000983  0.000312     3.222
   0.38493  0.61796  0.04318  1.14629  0.003394  0.000878 -0.000012     3.867
   0.39370  0.60927  0.04433  1.15799  0.003549  0.000825 -0.000131     4.299
   0.40246  0.60058  0.04545  1.15981  0.003609  0.000818 -0.000151     4.414
   0.41122  0.59189  0.04655  1.16164  0.003624  0.000810 -0.000161     4.474
   0.41999  0.58319  0.04763  1.16349  0.003585  0.000802 -0.000163     4.469
   0.42874  0.57450  0.04867  1.16537  0.003541  0.000794 -0.000163     4.457
   0.43749  0.56581  0.04969  1.16730  0.003461  0.000786 -0.000156     4.400
   0.44625  0.55711  0.05068  1.16930  0.003371  0.000778 -0.000146     4.330
   0.45500  0.54841  0.05164  1.17137  0.003274  0.000770 -0.000132     4.250
   0.46375  0.53971  0.05257  1.17351  0.003168  0.000762 -0.000111     4.157
   0.47249  0.53101  0.05347  1.17574  0.003056  0.000754 -0.000083     4.056
   0.48124  0.52231  0.05433  1.17806  0.002957  0.000745 -0.000055     3.969
   0.48998  0.51361  0.05517  1.18051  0.002840  0.000736 -0.000011     3.859
   0.49872  0.50491  0.05598  1.18307  0.002734  0.000727  0.000035     3.763
   0.50746  0.49620  0.05674  1.18572  0.002644  0.000717  0.000078     3.686
   0.51620  0.48749  0.05749  1.18854  0.002541  0.000707  0.000139     3.592
   0.52494  0.47878  0.05819  1.19145  0.002447  0.000697  0.000201     3.509
   0.53367  0.47007  0.05886  1.19437  0.002372  0.000687  0.000251     3.451
   0.54241  0.46136  0.05951  1.19756  0.002277  0.000677  0.000333     3.366
   0.55115  0.45264  0.06010  1.20060  0.002210  0.000666  0.000389     3.316
   0.55988  0.44393  0.06067  1.20371  0.002144  0.000656  0.000449     3.267
   0.56861  0.43521  0.06121  1.20702  0.002069  0.000645  0.000529     3.207
   0.57735  0.42649  0.06171  1.21026  0.002005  0.000635  0.000601     3.159
   0.58607  0.41778  0.06217  1.21339  0.001951  0.000625  0.000661     3.124
   0.59480  0.40906  0.06260  1.21677  0.001888  0.000614  0.000746     3.076
   0.60353  0.40034  0.06298  1.21971  0.001846  0.000604  0.000789     3.057
   0.61226  0.39162  0.06334  1.22294  0.001795  0.000594  0.000860     3.023
   0.62098  0.38290  0.06365  1.22607  0.001749  0.000583  0.000923     2.997
   0.62971  0.37418  0.06393  1.22915  0.001706  0.000573  0.000983     2.974
   0.63842  0.36547  0.06417  1.23261  0.001651  0.000563  0.001082     2.934
   0.64714  0.35675  0.06437  1.23551  0.001614  0.000553  0.001134     2.920
   0.65585  0.34804  0.06452  1.23855  0.001575  0.000543  0.001200     2.899
   0.66457  0.33932  0.06464  1.24177  0.001530  0.000533  0.001288     2.872
   0.67328  0.33061  0.06471  1.24449  0.001499  0.000523  0.001331     2.864
   0.68199  0.32190  0.06474  1.24744  0.001463  0.000514  0.001396     2.849
   0.69069  0.31320  0.06473  1.25067  0.001421  0.000503  0.001495     2.823
   0.69940  0.30450  0.06467  1.25330  0.001392  0.000494  0.001540     2.817
   0.70809  0.29581  0.06457  1.25677  0.001344  0.000483  0.001674     2.783
   0.71678  0.28712  0.06442  1.25910  0.001320  0.000474  0.001706     2.784
   0.72547  0.27843  0.06422  1.26251  0.001274  0.000463  0.001849     2.751
   0.73414  0.26976  0.06396  1.26479  0.001249  0.000454  0.001893     2.750
   0.74282  0.26109  0.06366  1.26751  0.001216  0.000444  0.001982     2.736
   0.75150  0.25242  0.06331  1.27055  0.001177  0.000434  0.002118     2.711
   0.76016  0.24377  0.06290  1.27285  0.001148  0.000425  0.002194     2.704
   0.76881  0.23513  0.06243  1.27544  0.001114  0.000415  0.002311     2.688
   0.77746  0.22649  0.06190  1.27776  0.001083  0.000405  0.002415     2.676
   0.78610  0.21787  0.06131  1.28039  0.001046  0.000394  0.002576     2.653
   0.79474  0.20926  0.06065  1.28221  0.001018  0.000385  0.002676     2.645
   0.80336  0.20067  0.05993  1.28375  0.000993  0.000376  0.002754     2.643
   0.81198  0.19209  0.05914  1.28602  0.000957  0.000365  0.002934     2.622
   0.82059  0.18352  0.05828  1.28748  0.000929  0.000355  0.003059     2.613
   0.82918  0.17498  0.05735  1.28890  0.000899  0.000346  0.003206     2.601
   0.83776  0.16646  0.05634  1.29002  0.000870  0.000336  0.003352     2.592
   0.84634  0.15795  0.05525  1.29120  0.000838  0.000325  0.003553     2.574
   0.85490  0.14947  0.05408  1.29109  0.000816  0.000316  0.003623     2.580
   0.86345  0.14101  0.05282  1.29177  0.000786  0.000306  0.003814     2.568
   0.87199  0.13258  0.05148  1.29216  0.000755  0.000296  0.004034     2.554
   0.88051  0.12418  0.05004  1.29165  0.000729  0.000286  0.004196     2.551
   0.88901  0.11582  0.04850  1.29042  0.000708  0.000276  0.004258     2.563
   0.89750  0.10749  0.04687  1.29056  0.000674  0.000265  0.004545     2.548
   0.90595  0.09922  0.04514  1.28997  0.000641  0.000253  0.004867     2.531
   0.91437  0.09100  0.04329  1.28772  0.000616  0.000243  0.005025     2.537
   0.92276  0.08285  0.04132  1.28574  0.000588  0.000231  0.005242     2.540
   0.93110  0.07477  0.03923  1.28413  0.000553  0.000219  0.005649     2.526
   0.93939  0.06679  0.03700  1.28130  0.000518  0.000206  0.006117     2.511
   0.94760  0.05893  0.03463  1.27681  0.000482  0.000193  0.006658     2.495
   0.95573  0.05121  0.03210  1.26984  0.000452  0.000181  0.007009     2.502
   0.96373  0.04367  0.02940  1.26280  0.000414  0.000167  0.007776     2.483
   0.97159  0.03636  0.02653  1.25202  0.000378  0.000153  0.008497     2.476
   0.97921  0.02937  0.02348  1.23814  0.000339  0.000138  0.009522     2.461
   0.98647  0.02285  0.02030  1.21851  0.000299  0.000122  0.010812     2.443
   0.99316  0.01700  0.01705  1.19127  0.000261  0.000107  0.012261     2.431
   0.99891  0.01215  0.01396  1.15732  0.000225  0.000093  0.013932     2.423
   1.00353  0.00844  0.01121  1.11361  0.000189  0.000080  0.016894     2.365
   1.00707  0.00576  0.00889  1.06056  0.000169  0.000070  0.017298     2.404
   1.00977  0.00386  0.00698  1.00692  0.000141  0.000061  0.021428     2.318
   1.01187  0.00251  0.00537  0.94103  0.000130  0.000055  0.020336     2.383
   1.01354  0.00154  0.00401  0.87967  0.000109  0.000047  0.024316     2.313
   1.01493  0.00085  0.00280  0.79382  0.000097  0.000042  0.025047     2.295
   1.01611  0.00037  0.00172  0.70247  0.000087  0.000037  0.024026     2.326
   1.01713  0.00008  0.00074  0.60603  0.000069  0.000029  0.025321     2.361
   1.01805  0.00000 -0.00018  0.41805  0.000052  0.000024  0.026482     2.205
   1.01898  0.00023 -0.00107  0.15830  0.000061  0.000027  0.008404     2.230
   1.02003  0.00080 -0.00195 -0.08152  0.000061  0.000027  0.004328     2.230
   1.02125  0.00162 -0.00286 -0.23876  0.000094  0.000041  0.007618     2.315
   1.02271  0.00271 -0.00383 -0.35566  0.000103  0.000046  0.011445     2.212
   1.02452  0.00415 -0.00492 -0.45988  0.000124  0.000054  0.011051     2.321
   1.02681  0.00607 -0.00617 -0.55083  0.000140  0.000062  0.012329     2.271
   1.02984  0.00871 -0.00767 -0.63712  0.000166  0.000071  0.011426     2.325
   1.03392  0.01237 -0.00947 -0.71758  0.000191  0.000082  0.011338     2.312
   1.03926  0.01730 -0.01151 -0.78124  0.000234  0.000098  0.009437     2.378
   1.04582  0.02349 -0.01369 -0.83216  0.000272  0.000115  0.008784     2.364
   1.05321  0.03055 -0.01587 -0.87504  0.000310  0.000131  0.008022     2.374
   1.06102  0.03809 -0.01790 -0.90817  0.000348  0.000146  0.007325     2.386
   1.06908  0.04593 -0.01978 -0.93209  0.000389  0.000161  0.006575     2.410
   1.07727  0.05394 -0.02149 -0.95301  0.000419  0.000175  0.006304     2.399
   1.08557  0.06209 -0.02306 -0.96859  0.000457  0.000189  0.005732     2.423
   1.09393  0.07033 -0.02449 -0.98300  0.000484  0.000201  0.005537     2.414
   1.10235  0.07865 -0.02579 -0.99238  0.000525  0.000215  0.004976     2.449
   1.11081  0.08702 -0.02699 -1.00200  0.000551  0.000226  0.004850     2.437
   1.11931  0.09545 -0.02808 -1.00880  0.000586  0.000239  0.004491     2.458
   1.12784  0.10392 -0.02908 -1.01612  0.000610  0.000249  0.004393     2.448
   1.13639  0.11242 -0.02998 -1.02107  0.000644  0.000261  0.004096     2.467
   1.14497  0.12096 -0.03080 -1.02545  0.000674  0.000272  0.003902     2.474
   1.15357  0.12953 -0.03155 -1.02937  0.000702  0.000283  0.003745     2.478
   1.16218  0.13812 -0.03221 -1.03132  0.000740  0.000296  0.003468     2.504
   1.17081  0.14673 -0.03282 -1.03458  0.000760  0.000305  0.003428     2.492
   1.17946  0.15536 -0.03336 -1.03578  0.000797  0.000317  0.003194     2.515
   1.18813  0.16401 -0.03385 -1.03801  0.000819  0.000327  0.003141     2.507
   1.19680  0.17267 -0.03428 -1.03924  0.000849  0.000337  0.002999     2.518
   1.20547  0.18134 -0.03466 -1.04026  0.000877  0.000347  0.002881     2.525
   1.21417  0.19003 -0.03499 -1.04088  0.000907  0.000358  0.002760     2.535
   1.22288  0.19873 -0.03527 -1.04114  0.000937  0.000368  0.002640     2.546
   1.23158  0.20743 -0.03552 -1.04207  0.000958  0.000377  0.002604     2.539
   1.24030  0.21615 -0.03571 -1.04174  0.000992  0.000388  0.002462     2.558
   1.24902  0.22487 -0.03587 -1.04147  0.001022  0.000398  0.002363     2.568
   1.25775  0.23360 -0.03600 -1.04145  0.001047  0.000408  0.002303     2.569
   1.26649  0.24234 -0.03608 -1.04147  0.001071  0.000417  0.002253     2.569
   1.27523  0.25108 -0.03613 -1.04058  0.001105  0.000427  0.002135     2.588
   1.28398  0.25983 -0.03615 -1.03976  0.001136  0.000437  0.002050     2.599
   1.29273  0.26858 -0.03615 -1.03960  0.001156  0.000446  0.002028     2.593
   1.30149  0.27734 -0.03611 -1.03860  0.001188  0.000456  0.001939     2.607
   1.31025  0.28610 -0.03605 -1.03790  0.001214  0.000465  0.001888     2.611
   1.31902  0.29487 -0.03597 -1.03693  0.001244  0.000475  0.001822     2.620
   1.32780  0.30364 -0.03586 -1.03644  0.001264  0.000483  0.001799     2.616
   1.33658  0.31242 -0.03572 -1.03516  0.001298  0.000493  0.001717     2.633
   1.34536  0.32120 -0.03556 -1.03396  0.001329  0.000503  0.001655     2.643
   1.35414  0.32998 -0.03539 -1.03313  0.001351  0.000511  0.001626     2.643
   1.36292  0.33876 -0.03519 -1.03181  0.001384  0.000521  0.001562     2.656
   1.37171  0.34755 -0.03499 -1.03116  0.001401  0.000529  0.001553     2.650
   1.38051  0.35634 -0.03475 -1.02965  0.001437  0.000539  0.001480     2.667
   1.38930  0.36513 -0.03451 -1.02858  0.001462  0.000547  0.001448     2.671
   1.39810  0.37393 -0.03425 -1.02757  0.001486  0.000556  0.001421     2.672
   1.40691  0.38273 -0.03398 -1.02659  0.001509  0.000564  0.001396     2.674
   1.41571  0.39153 -0.03368 -1.02515  0.001542  0.000574  0.001340     2.688
   1.42452  0.40033 -0.03339 -1.02435  0.001560  0.000582  0.001332     2.682
   1.43332  0.40913 -0.03308 -1.02296  0.001592  0.000591  0.001283     2.696
   1.44214  0.41794 -0.03275 -1.02214  0.001610  0.000598  0.001275     2.691
   1.45096  0.42675 -0.03241 -1.02052  0.001648  0.000608  0.001214     2.710
   1.45977  0.43556 -0.03207 -1.01959  0.001667  0.000616  0.001204     2.707
   1.46859  0.44437 -0.03171 -1.01825  0.001698  0.000625  0.001165     2.718
   1.47741  0.45318 -0.03136 -1.01759  0.001710  0.000632  0.001172     2.707
   1.48623  0.46199 -0.03099 -1.01630  0.001740  0.000640  0.001135     2.717
   1.49505  0.47081 -0.03062 -1.01558  0.001754  0.000647  0.001137     2.709
   1.50387  0.47962 -0.03022 -1.01405  0.001792  0.000657  0.001085     2.729
   1.51270  0.48844 -0.02984 -1.01343  0.001802  0.000663  0.001093     2.717
   1.52153  0.49726 -0.02944 -1.01211  0.001835  0.000672  0.001055     2.730
   1.53036  0.50608 -0.02904 -1.01130  0.001851  0.000679  0.001051     2.725
   1.53919  0.51490 -0.02863 -1.01007  0.001881  0.000688  0.001020     2.736
   1.54802  0.52372 -0.02821 -1.00911  0.001902  0.000695  0.001007     2.737
   1.55685  0.53254 -0.02780 -1.00838  0.001916  0.000702  0.001007     2.730
   1.56568  0.54136 -0.02738 -1.00749  0.001937  0.000709  0.000994     2.731
   1.57451  0.55018 -0.02695 -1.00629  0.001967  0.000717  0.000964     2.742
   1.58335  0.55901 -0.02652 -1.00549  0.001984  0.000724  0.000959     2.739
   1.59218  0.56783 -0.02609 -1.00461  0.002004  0.000732  0.000948     2.739
   1.60101  0.57665 -0.02565 -1.00367  0.002026  0.000739  0.000933     2.743
   1.60985  0.58548 -0.02521 -1.00274  0.002049  0.000746  0.000918     2.746
   1.61868  0.59430 -0.02476 -1.00196  0.002066  0.000753  0.000912     2.744
   1.62752  0.60313 -0.02432 -1.00129  0.002080  0.000759  0.000911     2.739
   1.63635  0.61195 -0.02387 -1.00032  0.002105  0.000767  0.000892     2.745
   1.64520  0.62078 -0.02342 -0.99967  0.002119  0.000773  0.000891     2.740
   1.65403  0.62960 -0.02296 -0.99859  0.002149  0.000781  0.000866     2.751
   1.66287  0.63843 -0.02251 -0.99800  0.002160  0.000787  0.000868     2.744
   1.67171  0.64726 -0.02205 -0.99715  0.002182  0.000794  0.000854     2.748
   1.68054  0.65608 -0.02159 -0.99639  0.002201  0.000801  0.000846     2.748
   1.68939  0.66491 -0.02112 -0.99540  0.002229  0.000808  0.000825     2.757
   1.69823  0.67374 -0.02066 -0.99487  0.002238  0.000814  0.000830     2.749
   1.70706  0.68256 -0.02019 -0.99387  0.002267  0.000822  0.000808     2.759
   1.71590  0.69139 -0.01972 -0.99321  0.002282  0.000828  0.000805     2.757
   1.72474  0.70021 -0.01925 -0.99235  0.002306  0.000835  0.000791     2.762
   1.73358  0.70904 -0.01878 -0.99174  0.002319  0.000841  0.000790     2.757
   1.74242  0.71787 -0.01830 -0.99080  0.002346  0.000848  0.000772     2.766
   1.75125  0.72669 -0.01782 -0.98996  0.002369  0.000855  0.000759     2.771
   1.76010  0.73552 -0.01734 -0.98920  0.002389  0.000862  0.000750     2.772
   1.76894  0.74435 -0.01686 -0.98836  0.002412  0.000869  0.000738     2.777
   1.77777  0.75317 -0.01638 -0.98759  0.002433  0.000875  0.000729     2.780
   1.78662  0.76200 -0.01590 -0.98690  0.002449  0.000881  0.000724     2.779
   1.79545  0.77082 -0.01541 -0.98595  0.002478  0.000889  0.000706     2.789
   1.80429  0.77965 -0.01492 -0.98507  0.002504  0.000896  0.000692     2.795
   1.81313  0.78847 -0.01443 -0.98425  0.002526  0.000902  0.000681     2.799
   1.82196  0.79729 -0.01393 -0.98319  0.002561  0.000910  0.000659     2.813
   1.83081  0.80612 -0.01344 -0.98239  0.002582  0.000917  0.000651     2.816
   1.83964  0.81494 -0.01294 -0.98135  0.002615  0.000924  0.000631     2.829
   1.84848  0.82377 -0.01244 -0.98034  0.002647  0.000932  0.000613     2.840
   1.85732  0.83259 -0.01194 -0.97937  0.002676  0.000939  0.000598     2.849
   1.86616  0.84142 -0.01143 -0.97812  0.002721  0.000948  0.000570     2.871
   1.87500  0.85024 -0.01093 -0.97722  0.002745  0.000954  0.000560     2.876
   1.88383  0.85906 -0.01041 -0.97578  0.002803  0.000964  0.000523     2.908
   1.89266  0.86787 -0.00990 -0.97467  0.002839  0.000972  0.000506     2.922
   1.90149  0.87669 -0.00938 -0.97331  0.002893  0.000981  0.000475     2.950
   1.91032  0.88550 -0.00886 -0.97197  0.002947  0.000990  0.000447     2.978
   1.91915  0.89432 -0.00833 -0.97040  0.003019  0.001000  0.000407     3.021
   1.92797  0.90312 -0.00780 -0.96892  0.003086  0.001009  0.000373     3.058
   1.93680  0.91193 -0.00725 -0.96713  0.003188  0.001020  0.000322     3.124
   1.94560  0.92072 -0.00670 -0.96544  0.003287  0.001031  0.000276     3.188
   1.95440  0.92950 -0.00614 -0.96366  0.003410  0.001042  0.000223     3.272
   1.96319  0.93827 -0.00557 -0.96184  0.003565  0.001054  0.000163     3.384
   1.97197  0.94703 -0.00498 -0.96014  0.003736  0.001064  0.000105     3.509
   1.98072  0.95576 -0.00436 -0.95852  0.003959  0.001075  0.000042     3.683
   1.98940  0.96441 -0.00371 -0.95713  0.004242  0.001084 -0.000019     3.914
   1.99796  0.97295 -0.00303 -0.95600  0.004577  0.001092 -0.000069     4.193
   2.00632  0.98127 -0.00226 -0.95508  0.005037  0.001098 -0.000106     4.588
   2.01423  0.98913 -0.00140 -0.95452  0.005656  0.001102 -0.000122     5.133
   2.02137  0.99622 -0.00051 -0.95436  0.006369  0.001103 -0.000122     5.776
   2.02519  1.00000  0.00000 -0.95457  0.006977  0.001101 -0.000118     6.340
   2.02519  1.00010  0.00001  0.95457  0.010513  0.003652  0.000000     2.879
   2.02898  1.00388  0.00034  0.95323  0.009740  0.003677  0.000000     2.649
