#    s        x        y     Ue/Vinf    Dstar     Theta      Cf       H
   0.00000  1.00000  0.00000  0.91626  0.002190  0.001616  0.003483     1.356
   0.00377  0.99624 -0.00023  0.90668  0.002281  0.001666  0.003313     1.369
   0.01072  0.98929 -0.00051  0.89201  0.002433  0.001746  0.003051     1.393
   0.01845  0.98156 -0.00063  0.88411  0.002515  0.001785  0.002908     1.409
   0.02661  0.97340 -0.00056  0.88169  0.002529  0.001787  0.002860     1.416
   0.03500  0.96502 -0.00034  0.88089  0.002523  0.001777  0.002838     1.420
   0.04347  0.95655  0.00000  0.88266  0.002484  0.001749  0.002862     1.420
   0.05203  0.94800  0.00043  0.88386  0.002453  0.001725  0.002873     1.422
   0.06063  0.93942  0.00095  0.88630  0.002406  0.001693  0.002907     1.421
   0.06925  0.93082  0.00154  0.88816  0.002367  0.001665  0.002930     1.421
   0.07789  0.92221  0.00220  0.89044  0.002323  0.001635  0.002960     1.421
   0.08653  0.91359  0.00291  0.89292  0.002278  0.001603  0.002992     1.421
   0.09519  0.90497  0.00369  0.89628  0.002223  0.001567  0.003041     1.419
   0.10387  0.89633  0.00453  0.89917  0.002175  0.001533  0.003081     1.419
   0.11256  0.88769  0.00542  0.90281  0.002119  0.001496  0.003134     1.417
   0.12126  0.87904  0.00635  0.90600  0.002070  0.001461  0.003178     1.416
   0.12996  0.87039  0.00733  0.90989  0.002014  0.001423  0.003235     1.415
   0.13869  0.86172  0.00836  0.91425  0.001954  0.001383  0.003301     1.413
   0.14742  0.85306  0.00942  0.91828  0.001900  0.001345  0.003359     1.412
   0.15616  0.84438  0.01051  0.92180  0.001852  0.001311  0.003404     1.413
   0.16492  0.83570  0.01163  0.92631  0.001796  0.001271  0.003466     1.413
   0.17367  0.82702  0.01278  0.92963  0.001753  0.001238  0.003499     1.415
   0.18244  0.81833  0.01397  0.93485  0.001695  0.001197  0.003567     1.416
   0.19123  0.80963  0.01516  0.93819  0.001656  0.001165  0.003586     1.422
   0.20000  0.80094  0.01639  0.94288  0.001609  0.001128  0.003622     1.427
   0.20879  0.79224  0.01762  0.94630  0.001575  0.001096  0.003615     1.437
   0.21759  0.78353  0.01887  0.95000  0.001543  0.001064  0.003590     1.451
   0.22639  0.77482  0.02015  0.95405  0.001515  0.001031  0.003542     1.469
   0.23520  0.76611  0.02143  0.95741  0.001499  0.001002  0.003434     1.497
   0.24400  0.75740  0.02273  0.96096  0.001494  0.000973  0.003269     1.535
   0.25283  0.74867  0.02403  0.96381  0.001512  0.000948  0.003001     1.595
   0.26165  0.73995  0.02534  0.96731  0.001553  0.000922  0.002630     1.683
   0.27047  0.73122  0.02666  0.97112  0.001640  0.000898  0.002104     1.826
   0.27931  0.72248  0.02798  0.97750  0.001791  0.000867  0.001441     2.066
   0.28815  0.71374  0.02930  0.99045  0.002019  0.000815  0.000745     2.478
   0.29698  0.70501  0.03063  1.01366  0.002307  0.000727  0.000218     3.174
   0.30581  0.69628  0.03194  1.04350  0.002579  0.000616 -0.000067     4.184
   0.31463  0.68756  0.03324  1.04521  0.002701  0.000610 -0.000095     4.426
   0.32344  0.67884  0.03455  1.04690  0.002731  0.000604 -0.000104     4.520
   0.33224  0.67014  0.03583  1.04860  0.002717  0.000598 -0.000107     4.540
   0.34104  0.66143  0.03710  1.05033  0.002667  0.000592 -0.000105     4.501
   0.34982  0.65274  0.03836  1.05210  0.002592  0.000586 -0.000099     4.419
   0.35861  0.64404  0.03959  1.05395  0.002505  0.000580 -0.000089     4.317
   0.36739  0.63534  0.04081  1.05588  0.002411  0.000574 -0.000075     4.200
   0.37617  0.62665  0.04200  1.05790  0.002306  0.000568 -0.000053     4.062
   0.38493  0.61796  0.04318  1.06004  0.002196  0.000561 -0.000021     3.915
   0.39370  0.60927  0.04433  1.06232  0.002100  0.000554  0.000012     3.791
   0.40246  0.60058  0.04545  1.06479  0.001997  0.000547  0.000058     3.654
   0.41122  0.59189  0.04655  1.06739  0.001908  0.000539  0.000105     3.541
   0.41999  0.58319  0.04763  1.07022  0.001814  0.000531  0.000166     3.419
   0.42874  0.57450  0.04867  1.07295  0.001747  0.000523  0.000212     3.342
   0.43749  0.56581  0.04969  1.07595  0.001670  0.000514  0.000276     3.248
   0.44625  0.55711  0.05068  1.07892  0.001604  0.000506  0.000335     3.173
   0.45500  0.54841  0.05164  1.08191  0.001543  0.000497  0.000396     3.105
   0.46375  0.53971  0.05257  1.08482  0.001489  0.000489  0.000454     3.047
   0.47249  0.53101  0.05347  1.08778  0.001436  0.000480  0.000518     2.990
   0.48124  0.52231  0.05433  1.09027  0.001401  0.000473  0.000557     2.961
   0.48998  0.51361  0.05517  1.09326  0.001350  0.000464  0.000629     2.906
   0.49872  0.50491  0.05598  1.09588  0.001310  0.000457  0.000685     2.869
   0.50746  0.49620  0.05674  1.09792  0.001285  0.000450  0.000712     2.856
   0.51620  0.48749  0.05749  1.10062  0.001244  0.000442  0.000780     2.815
   0.52494  0.47878  0.05819  1.10285  0.001213  0.000435  0.000828     2.790
   0.53367  0.47007  0.05886  1.10459  0.001192  0.000429  0.000853     2.782
   0.54241  0.46136  0.05951  1.10720  0.001153  0.000421  0.000931     2.742
   0.55115  0.45264  0.06010  1.10869  0.001135  0.000415  0.000953     2.737
   0.55988  0.44393  0.06067  1.11042  0.001112  0.000408  0.000991     2.724
   0.56861  0.43521  0.06121  1.11246  0.001082  0.000401  0.001052     2.698
   0.57735  0.42649  0.06171  1.11409  0.001059  0.000395  0.001098     2.683
   0.58607  0.41778  0.06217  1.11531  0.001041  0.000389  0.001125     2.678
   0.59480  0.40906  0.06260  1.11723  0.001011  0.000381  0.001198     2.651
   0.60353  0.40034  0.06298  1.11785  0.001000  0.000376  0.001203     2.657
   0.61226  0.39162  0.06334  1.11929  0.000977  0.000370  0.001257     2.641
   0.62098  0.38290  0.06365  1.12043  0.000957  0.000364  0.001300     2.631
   0.62971  0.37418  0.06393  1.12108  0.000943  0.000358  0.001317     2.633
   0.63842  0.36547  0.06417  1.12287  0.000913  0.000351  0.001410     2.603
   0.64714  0.35675  0.06437  1.12322  0.000900  0.000345  0.001428     2.605
   0.65585  0.34804  0.06452  1.12401  0.000881  0.000339  0.001476     2.596
   0.66457  0.33932  0.06464  1.12484  0.000860  0.000333  0.001535     2.583
   0.67328  0.33061  0.06471  1.12492  0.000847  0.000327  0.001554     2.585
   0.68199  0.32190  0.06474  1.12541  0.000829  0.000321  0.001602     2.578
   0.69069  0.31320  0.06473  1.12600  0.000808  0.000315  0.001667     2.565
   0.69940  0.30450  0.06467  1.12593  0.000793  0.000309  0.001699     2.565
   0.70809  0.29581  0.06457  1.12662  0.000769  0.000302  0.001795     2.544
   0.71678  0.28712  0.06442  1.12577  0.000759  0.000297  0.001799     2.553
   0.72547  0.27843  0.06422  1.12636  0.000734  0.000290  0.001911     2.529
   0.73414  0.26976  0.06396  1.12529  0.000722  0.000285  0.001928     2.535
   0.74282  0.26109  0.06366  1.12474  0.000705  0.000279  0.001985     2.529
   0.75150  0.25242  0.06331  1.12458  0.000683  0.000272  0.002093     2.510
   0.76016  0.24377  0.06290  1.12328  0.000667  0.000266  0.002147     2.507
   0.76881  0.23513  0.06243  1.12188  0.000651  0.000260  0.002207     2.503
   0.77746  0.22649  0.06190  1.12041  0.000634  0.000254  0.002284     2.495
   0.78610  0.21787  0.06131  1.11891  0.000614  0.000247  0.002393     2.480
   0.79474  0.20926  0.06065  1.11656  0.000597  0.000241  0.002475     2.472
   0.80336  0.20067  0.05993  1.11321  0.000585  0.000236  0.002493     2.481
   0.81198  0.19209  0.05914  1.11108  0.000563  0.000229  0.002641     2.461
   0.82059  0.18352  0.05828  1.10725  0.000549  0.000223  0.002699     2.461
   0.82918  0.17498  0.05735  1.10374  0.000530  0.000216  0.002829     2.447
   0.83776  0.16646  0.05634  1.09900  0.000514  0.000210  0.002910     2.444
   0.84634  0.15795  0.05525  1.09414  0.000496  0.000204  0.003045     2.432
   0.85490  0.14947  0.05408  1.08778  0.000482  0.000198  0.003100     2.436
   0.86345  0.14101  0.05282  1.08160  0.000465  0.000191  0.003226     2.427
   0.87199  0.13258  0.05148  1.07460  0.000446  0.000185  0.003384     2.414
   0.88051  0.12418  0.05004  1.06609  0.000429  0.000178  0.003518     2.407
   0.88901  0.11582  0.04850  1.05576  0.000419  0.000172  0.003496     2.427
   0.89750  0.10749  0.04687  1.04708  0.000396  0.000165  0.003746     2.405
   0.90595  0.09922  0.04514  1.03551  0.000378  0.000158  0.003919     2.396
   0.91437  0.09100  0.04329  1.02202  0.000360  0.000151  0.004087     2.390
   0.92276  0.08285  0.04132  1.00645  0.000345  0.000144  0.004135     2.403
   0.93110  0.07477  0.03923  0.99087  0.000322  0.000135  0.004457     2.382
   0.93939  0.06679  0.03700  0.97073  0.000304  0.000128  0.004622     2.383
   0.94760  0.05893  0.03463  0.94778  0.000280  0.000119  0.005028     2.356
   0.95573  0.05121  0.03210  0.91797  0.000263  0.000111  0.005141     2.365
   0.96373  0.04367  0.02940  0.88465  0.000240  0.000102  0.005500     2.351
   0.97159  0.03636  0.02653  0.84256  0.000218  0.000093  0.005815     2.342
   0.97921  0.02937  0.02348  0.78893  0.000194  0.000084  0.006255     2.319
   0.98647  0.02285  0.02030  0.72144  0.000173  0.000074  0.006321     2.333
   0.99316  0.01700  0.01705  0.63367  0.000146  0.000064  0.006973     2.271
   0.99891  0.01215  0.01396  0.52553  0.000129  0.000056  0.006255     2.318
   1.00353  0.00844  0.01121  0.39938  0.000106  0.000047  0.006319     2.229
   1.00707  0.00576  0.00889  0.25829  0.000096  0.000042  0.004282     2.284
   1.00977  0.00386  0.00698  0.10802  0.000075  0.000034  0.002407     2.230
   1.01187  0.00251  0.00537 -0.05615  0.000075  0.000034  0.001251     2.230
   1.01354  0.00154  0.00401 -0.23419  0.000059  0.000027  0.006750     2.207
   1.01493  0.00085  0.00280 -0.43035  0.000055  0.000025  0.013110     2.227
   1.01611  0.00037  0.00172 -0.66632  0.000045  0.000021  0.025927     2.169
   1.01713  0.00008  0.00074 -0.96422  0.000039  0.000018  0.043113     2.190
   1.01805  0.00000 -0.00018 -1.35920  0.000032  0.000015  0.075720     2.164
   1.01898  0.00023 -0.00107 -1.56236  0.000045  0.000018  0.045305     2.485
   1.02003  0.00080 -0.00195 -1.50275  0.000088  0.000028  0.009435     3.121
   1.02125  0.00162 -0.00286 -1.45228  0.000102  0.000037  0.013485     2.765
   1.02271  0.00271 -0.00383 -1.41844  0.000130  0.000045  0.009041     2.863
   1.02452  0.00415 -0.00492 -1.39293  0.000150  0.000054  0.008464     2.792
   1.02681  0.00607 -0.00617 -1.37447  0.000170  0.000062  0.007891     2.737
   1.02984  0.00871 -0.00767 -1.36110  0.000192  0.000071  0.007387     2.685
   1.03392  0.01237 -0.00947 -1.35287  0.000215  0.000082  0.006965     2.635
   1.03926  0.01730 -0.01151 -1.33656  0.000260  0.000095  0.005063     2.730
   1.04582  0.02349 -0.01369 -1.31894  0.000304  0.000110  0.004138     2.756
   1.05321  0.03055 -0.01587 -1.30780  0.000334  0.000124  0.004018     2.698
   1.06102  0.03809 -0.01790 -1.29960  0.000366  0.000137  0.003725     2.680
   1.06908  0.04593 -0.01978 -1.29101  0.000404  0.000149  0.003269     2.701
   1.07727  0.05394 -0.02149 -1.28474  0.000432  0.000161  0.003094     2.686
   1.08557  0.06209 -0.02306 -1.27863  0.000463  0.000172  0.002849     2.693
   1.09393  0.07033 -0.02449 -1.27325  0.000492  0.000183  0.002667     2.694
   1.10235  0.07865 -0.02579 -1.26725  0.000525  0.000193  0.002421     2.716
   1.11081  0.08702 -0.02699 -1.26250  0.000551  0.000203  0.002313     2.711
   1.11931  0.09545 -0.02808 -1.25697  0.000583  0.000213  0.002116     2.733
   1.12784  0.10392 -0.02908 -1.25278  0.000606  0.000223  0.002051     2.725
   1.13639  0.11242 -0.02998 -1.24779  0.000637  0.000232  0.001894     2.745
   1.14497  0.12096 -0.03080 -1.24299  0.000667  0.000242  0.001769     2.760
   1.15357  0.12953 -0.03155 -1.23859  0.000693  0.000251  0.001682     2.766
   1.16218  0.13812 -0.03221 -1.23328  0.000729  0.000260  0.001522     2.800
   1.17081  0.14673 -0.03282 -1.22902  0.000754  0.000269  0.001464     2.802
   1.17946  0.15536 -0.03336 -1.22394  0.000789  0.000278  0.001334     2.834
   1.18813  0.16401 -0.03385 -1.21993  0.000812  0.000287  0.001297     2.831
   1.19680  0.17267 -0.03428 -1.21562  0.000841  0.000295  0.001224     2.845
   1.20547  0.18134 -0.03466 -1.21154  0.000867  0.000304  0.001167     2.855
   1.21417  0.19003 -0.03499 -1.20691  0.000903  0.000313  0.001067     2.887
   1.22288  0.19873 -0.03527 -1.20272  0.000933  0.000321  0.001007     2.902
   1.23158  0.20743 -0.03552 -1.19901  0.000956  0.000329  0.000977     2.904
   1.24030  0.21615 -0.03571 -1.19482  0.000990  0.000338  0.000907     2.929
   1.24902  0.22487 -0.03587 -1.19063  0.001025  0.000347  0.000838     2.957
   1.25775  0.23360 -0.03600 -1.18707  0.001048  0.000354  0.000814     2.958
   1.26649  0.24234 -0.03608 -1.18324  0.001079  0.000362  0.000765     2.978
   1.27523  0.25108 -0.03613 -1.17936  0.001113  0.000371  0.000710     3.003
   1.28398  0.25983 -0.03615 -1.17541  0.001151  0.000379  0.000650     3.035
   1.29273  0.26858 -0.03615 -1.17220  0.001171  0.000387  0.000643     3.030
   1.30149  0.27734 -0.03611 -1.16837  0.001211  0.000395  0.000583     3.066
   1.31025  0.28610 -0.03605 -1.16509  0.001236  0.000402  0.000564     3.072
   1.31902  0.29487 -0.03597 -1.16165  0.001269  0.000410  0.000528     3.093
   1.32780  0.30364 -0.03586 -1.15855  0.001294  0.000418  0.000512     3.098
   1.33658  0.31242 -0.03572 -1.15520  0.001329  0.000426  0.000475     3.124
   1.34536  0.32120 -0.03556 -1.15204  0.001360  0.000433  0.000448     3.141
   1.35414  0.32998 -0.03539 -1.14910  0.001386  0.000440  0.000434     3.147
   1.36292  0.33876 -0.03519 -1.14612  0.001415  0.000448  0.000413     3.161
   1.37171  0.34755 -0.03499 -1.14362  0.001428  0.000454  0.000421     3.145
   1.38051  0.35634 -0.03475 -1.14087  0.001455  0.000461  0.000405     3.155
   1.38930  0.36513 -0.03451 -1.13849  0.001469  0.000468  0.000409     3.142
   1.39810  0.37393 -0.03425 -1.13660  0.001467  0.000473  0.000440     3.102
   1.40691  0.38273 -0.03398 -1.13502  0.001460  0.000478  0.000479     3.055
   1.41571  0.39153 -0.03368 -1.13386  0.001446  0.000482  0.000529     2.999
   1.42452  0.40033 -0.03339 -1.12742  0.001363  0.000498  0.000808     2.736
   1.43332  0.40913 -0.03308 -1.11706  0.001261  0.000523  0.001248     2.411
   1.44214  0.41794 -0.03275 -1.10845  0.001149  0.000546  0.001970     2.103
   1.45096  0.42675 -0.03241 -1.10121  0.001074  0.000569  0.002749     1.887
   1.45977  0.43556 -0.03207 -1.09804  0.001018  0.000587  0.003489     1.733
   1.46859  0.44437 -0.03171 -1.09521  0.000992  0.000606  0.004032     1.636
   1.47741  0.45318 -0.03136 -1.09470  0.000977  0.000623  0.004467     1.568
   1.48623  0.46199 -0.03099 -1.09180  0.000987  0.000646  0.004691     1.529
   1.49505  0.47081 -0.03062 -1.09158  0.000994  0.000664  0.004896     1.497
   1.50387  0.47962 -0.03022 -1.08799  0.001022  0.000690  0.004933     1.481
   1.51270  0.48844 -0.02984 -1.08780  0.001039  0.000709  0.005021     1.465
   1.52153  0.49726 -0.02944 -1.08515  0.001070  0.000734  0.005005     1.457
   1.53036  0.50608 -0.02904 -1.08372  0.001097  0.000756  0.005001     1.451
   1.53919  0.51490 -0.02863 -1.08118  0.001131  0.000781  0.004952     1.448
   1.54802  0.52372 -0.02821 -1.07949  0.001162  0.000804  0.004917     1.445
   1.55685  0.53254 -0.02780 -1.07828  0.001191  0.000826  0.004886     1.442
   1.56568  0.54136 -0.02738 -1.07655  0.001224  0.000849  0.004837     1.441
   1.57451  0.55018 -0.02695 -1.07398  0.001261  0.000874  0.004764     1.442
   1.58335  0.55901 -0.02652 -1.07224  0.001294  0.000897  0.004713     1.442
   1.59218  0.56783 -0.02609 -1.07070  0.001327  0.000920  0.004666     1.442
   1.60101  0.57665 -0.02565 -1.06850  0.001363  0.000945  0.004603     1.443
   1.60985  0.58548 -0.02521 -1.06653  0.001398  0.000968  0.004547     1.444
   1.61868  0.59430 -0.02476 -1.06504  0.001430  0.000991  0.004503     1.444
   1.62752  0.60313 -0.02432 -1.06389  0.001460  0.001012  0.004468     1.443
   1.63635  0.61195 -0.02387 -1.06166  0.001498  0.001037  0.004408     1.445
   1.64520  0.62078 -0.02342 -1.06035  0.001529  0.001058  0.004371     1.445
   1.65403  0.62960 -0.02296 -1.05763  0.001570  0.001085  0.004302     1.447
   1.66287  0.63843 -0.02251 -1.05698  0.001596  0.001104  0.004284     1.446
   1.67171  0.64726 -0.02205 -1.05490  0.001633  0.001129  0.004232     1.447
   1.68054  0.65608 -0.02159 -1.05368  0.001663  0.001150  0.004202     1.446
   1.68939  0.66491 -0.02112 -1.05105  0.001704  0.001177  0.004141     1.448
   1.69823  0.67374 -0.02066 -1.05043  0.001730  0.001196  0.004127     1.447
   1.70706  0.68256 -0.02019 -1.04807  0.001769  0.001221  0.004073     1.448
   1.71590  0.69139 -0.01972 -1.04682  0.001800  0.001243  0.004047     1.448
   1.72474  0.70021 -0.01925 -1.04501  0.001835  0.001267  0.004008     1.449
   1.73358  0.70904 -0.01878 -1.04406  0.001863  0.001287  0.003989     1.448
   1.74242  0.71787 -0.01830 -1.04191  0.001901  0.001312  0.003944     1.449
   1.75125  0.72669 -0.01782 -1.04039  0.001933  0.001335  0.003914     1.449
   1.76010  0.73552 -0.01734 -1.03873  0.001968  0.001358  0.003882     1.449
   1.76894  0.74435 -0.01686 -1.03713  0.002001  0.001381  0.003851     1.449
   1.77777  0.75317 -0.01638 -1.03579  0.002033  0.001403  0.003827     1.448
   1.78662  0.76200 -0.01590 -1.03470  0.002062  0.001424  0.003809     1.448
   1.79545  0.77082 -0.01541 -1.03266  0.002100  0.001450  0.003770     1.449
   1.80429  0.77965 -0.01492 -1.03123  0.002132  0.001472  0.003745     1.448
   1.81313  0.78847 -0.01443 -1.02984  0.002164  0.001495  0.003722     1.448
   1.82196  0.79729 -0.01393 -1.02747  0.002206  0.001522  0.003678     1.449
   1.83081  0.80612 -0.01344 -1.02683  0.002230  0.001541  0.003672     1.448
   1.83964  0.81494 -0.01294 -1.02473  0.002270  0.001567  0.003635     1.449
   1.84848  0.82377 -0.01244 -1.02312  0.002304  0.001591  0.003609     1.449
   1.85732  0.83259 -0.01194 -1.02200  0.002334  0.001612  0.003593     1.448
   1.86616  0.84142 -0.01143 -1.01974  0.002376  0.001640  0.003554     1.449
   1.87500  0.85024 -0.01093 -1.01897  0.002401  0.001659  0.003546     1.447
   1.88383  0.85906 -0.01041 -1.01628  0.002448  0.001689  0.003500     1.449
   1.89266  0.86787 -0.00990 -1.01527  0.002476  0.001710  0.003488     1.448
   1.90149  0.87669 -0.00938 -1.01339  0.002515  0.001736  0.003459     1.449
   1.91032  0.88550 -0.00886 -1.01160  0.002552  0.001761  0.003432     1.449
   1.91915  0.89432 -0.00833 -1.00994  0.002588  0.001786  0.003408     1.449
   1.92797  0.90312 -0.00780 -1.00832  0.002624  0.001811  0.003385     1.449
   1.93680  0.91193 -0.00725 -1.00582  0.002671  0.001841  0.003345     1.451
   1.94560  0.92072 -0.00670 -1.00385  0.002711  0.001868  0.003317     1.451
   1.95440  0.92950 -0.00614 -1.00176  0.002753  0.001896  0.003287     1.452
   1.96319  0.93827 -0.00557 -0.99884  0.002806  0.001930  0.003241     1.454
   1.97197  0.94703 -0.00498 -0.99642  0.002853  0.001960  0.003207     1.455
   1.98072  0.95576 -0.00436 -0.99296  0.002914  0.001998  0.003153     1.459
   1.98940  0.96441 -0.00371 -0.98779  0.003001  0.002048  0.003069     1.465
   1.99796  0.97295 -0.00303 -0.98250  0.003091  0.002100  0.002984     1.472
   2.00632  0.98127 -0.00226 -0.97214  0.003264  0.002192  0.002810     1.489
   2.01423  0.98913 -0.00140 -0.95528  0.003567  0.002342  0.002525     1.523
   2.02137  0.99622 -0.00051 -0.93310  0.004030  0.002556  0.002157     1.577
   2.02519  1.00000  0.00000 -0.91626  0.004447  0.002733  0.001882     1.627
   2.02519  1.00010  0.00001  0.91626  0.006638  0.004349  0.000000     1.526
   2.02898  1.00388  0.00033  0.92605  0.006259  0.004190  0.000000     1.494
